Time (elapsed) ,ECG (mV),Resp C (mV),Resp A (mV),Resp N (mV), SpO2 (mV)
00:00:00.000,-0.060,-0.102,-0.345,0.235,98.000
00:00:00.010,-0.065,-0.102,-0.345,0.236,98.000
00:00:00.020,-0.060,-0.103,-0.346,0.237,98.000
00:00:00.030,-0.075,-0.104,-0.347,0.238,98.000
00:00:00.040,-0.065,-0.105,-0.348,0.239,98.000
00:00:00.050,-0.070,-0.107,-0.349,0.240,98.000
00:00:00.060,-0.070,-0.103,-0.351,0.241,98.000
00:00:00.070,-0.090,-0.099,-0.353,0.242,98.000
00:00:00.080,-0.080,-0.096,-0.355,0.243,98.000
00:00:00.090,-0.095,-0.092,-0.356,0.244,98.000
00:00:00.100,-0.080,-0.089,-0.358,0.245,98.000
00:00:00.110,-0.095,-0.088,-0.358,0.246,98.000
00:00:00.120,-0.080,-0.086,-0.359,0.246,98.000
00:00:00.130,-0.095,-0.085,-0.359,0.247,98.000
00:00:00.140,-0.085,-0.084,-0.359,0.248,98.000
00:00:00.150,-0.090,-0.083,-0.360,0.249,98.000
00:00:00.160,-0.090,-0.085,-0.359,0.250,98.000
00:00:00.170,-0.100,-0.087,-0.359,0.251,98.000
00:00:00.180,-0.085,-0.089,-0.359,0.252,98.000
00:00:00.190,-0.105,-0.091,-0.358,0.252,98.000
00:00:00.200,-0.090,-0.093,-0.358,0.253,98.000
00:00:00.210,-0.045,-0.096,-0.358,0.254,98.000
00:00:00.220,0.005,-0.098,-0.357,0.255,98.000
00:00:00.230,0.015,-0.100,-0.357,0.256,98.000
00:00:00.240,0.045,-0.102,-0.357,0.257,98.000
00:00:00.250,0.155,-0.104,-0.357,0.257,98.000
00:00:00.260,0.140,-0.098,-0.357,0.258,98.000
00:00:00.270,0.045,-0.093,-0.358,0.259,98.000
00:00:00.280,0.005,-0.087,-0.359,0.259,98.000
00:00:00.290,-0.040,-0.082,-0.359,0.260,98.000
00:00:00.300,-0.085,-0.076,-0.360,0.260,98.000
00:00:00.310,-0.200,-0.080,-0.360,0.261,98.000
00:00:00.320,-0.195,-0.084,-0.359,0.262,98.000
00:00:00.330,-0.200,-0.087,-0.359,0.262,98.000
00:00:00.340,-0.200,-0.091,-0.359,0.263,98.000
00:00:00.350,-0.240,-0.094,-0.358,0.264,98.000
00:00:00.360,-0.130,-0.096,-0.359,0.264,98.000
00:00:00.370,0.340,-0.098,-0.361,0.265,98.000
00:00:00.380,1.155,-0.100,-0.362,0.266,98.000
00:00:00.390,1.470,-0.102,-0.363,0.266,98.000
00:00:00.400,-0.155,-0.103,-0.364,0.267,98.000
00:00:00.410,-0.825,-0.104,-0.363,0.267,98.000
00:00:00.420,-0.590,-0.105,-0.363,0.268,98.000
00:00:00.430,-0.350,-0.105,-0.362,0.269,98.000
00:00:00.440,-0.155,-0.106,-0.361,0.269,98.000
00:00:00.450,-0.170,-0.107,-0.360,0.270,98.000
00:00:00.460,-0.140,-0.114,-0.357,0.270,98.000
00:00:00.470,-0.155,-0.120,-0.355,0.271,98.000
00:00:00.480,-0.115,-0.127,-0.352,0.271,98.000
00:00:00.490,-0.125,-0.133,-0.350,0.272,98.000
00:00:00.500,-0.090,-0.140,-0.347,0.272,98.000
00:00:00.510,-0.095,-0.132,-0.351,0.273,98.000
00:00:00.520,-0.065,-0.124,-0.355,0.273,98.000
00:00:00.530,-0.055,-0.116,-0.358,0.274,98.000
00:00:00.540,-0.015,-0.108,-0.362,0.274,98.000
00:00:00.550,-0.005,-0.101,-0.366,0.274,98.000
00:00:00.560,0.035,-0.100,-0.367,0.275,98.000
00:00:00.570,0.045,-0.099,-0.369,0.275,98.000
00:00:00.580,0.090,-0.098,-0.371,0.275,98.000
00:00:00.590,0.110,-0.097,-0.372,0.276,98.000
00:00:00.600,0.150,-0.097,-0.374,0.276,98.000
00:00:00.610,0.180,-0.100,-0.372,0.276,98.000
00:00:00.620,0.205,-0.104,-0.370,0.276,98.000
00:00:00.630,0.225,-0.108,-0.369,0.275,98.000
00:00:00.640,0.230,-0.112,-0.367,0.275,98.000
00:00:00.650,0.220,-0.116,-0.366,0.275,98.000
00:00:00.660,0.235,-0.114,-0.364,0.273,98.000
00:00:00.670,0.230,-0.111,-0.363,0.271,98.000
00:00:00.680,0.200,-0.109,-0.362,0.270,98.000
00:00:00.690,0.170,-0.107,-0.360,0.268,98.000
00:00:00.700,0.120,-0.105,-0.359,0.267,98.000
00:00:00.710,0.075,-0.104,-0.358,0.264,98.000
00:00:00.720,0.040,-0.104,-0.356,0.261,98.000
00:00:00.730,0.020,-0.104,-0.355,0.259,98.000
00:00:00.740,0.005,-0.104,-0.353,0.256,98.000
00:00:00.750,-0.005,-0.104,-0.352,0.253,98.000
00:00:00.760,-0.005,-0.098,-0.350,0.250,98.000
00:00:00.770,-0.010,-0.093,-0.349,0.247,98.000
00:00:00.780,-0.015,-0.088,-0.348,0.244,98.000
00:00:00.790,-0.010,-0.082,-0.347,0.241,98.000
00:00:00.800,0.000,-0.077,-0.345,0.238,98.000
00:00:00.810,-0.005,-0.078,-0.343,0.235,98.000
00:00:00.820,-0.020,-0.079,-0.341,0.231,98.000
00:00:00.830,-0.020,-0.079,-0.338,0.228,98.000
00:00:00.840,-0.015,-0.080,-0.336,0.225,98.000
00:00:00.850,-0.025,-0.081,-0.334,0.222,98.000
00:00:00.860,-0.035,-0.083,-0.332,0.218,98.000
00:00:00.870,-0.045,-0.085,-0.330,0.215,98.000
00:00:00.880,-0.045,-0.087,-0.327,0.212,98.000
00:00:00.890,-0.060,-0.088,-0.325,0.208,98.000
00:00:00.900,-0.065,-0.090,-0.323,0.205,98.000
00:00:00.910,-0.070,-0.088,-0.320,0.202,98.000
00:00:00.920,-0.055,-0.086,-0.317,0.198,98.000
00:00:00.930,-0.060,-0.084,-0.314,0.195,98.000
00:00:00.940,-0.080,-0.082,-0.311,0.191,98.000
00:00:00.950,-0.075,-0.080,-0.308,0.188,98.000
00:00:00.960,-0.090,-0.076,-0.307,0.184,98.000
00:00:00.970,-0.065,-0.072,-0.305,0.181,98.000
00:00:00.980,-0.075,-0.068,-0.304,0.177,98.000
00:00:00.990,-0.080,-0.064,-0.302,0.174,98.000
00:00:01.000,-0.080,-0.059,-0.301,0.170,98.000
00:00:01.010,-0.085,-0.063,-0.296,0.166,98.000
00:00:01.020,-0.090,-0.066,-0.291,0.163,98.000
00:00:01.030,-0.075,-0.069,-0.286,0.159,98.000
00:00:01.040,-0.085,-0.072,-0.281,0.155,98.000
00:00:01.050,-0.095,-0.076,-0.276,0.151,98.000
00:00:01.060,-0.105,-0.080,-0.270,0.147,98.000
00:00:01.070,-0.090,-0.084,-0.263,0.144,98.000
00:00:01.080,-0.095,-0.088,-0.257,0.140,98.000
00:00:01.090,-0.070,-0.092,-0.250,0.136,98.000
00:00:01.100,-0.045,-0.096,-0.243,0.133,98.000
00:00:01.110,0.005,-0.092,-0.240,0.129,98.000
00:00:01.120,0.030,-0.089,-0.236,0.125,98.000
00:00:01.130,0.070,-0.085,-0.232,0.122,98.000
00:00:01.140,0.195,-0.081,-0.229,0.118,98.000
00:00:01.150,0.145,-0.077,-0.225,0.115,98.000
00:00:01.160,0.050,-0.082,-0.215,0.111,98.000
00:00:01.170,-0.015,-0.086,-0.205,0.107,98.000
00:00:01.180,-0.025,-0.090,-0.195,0.103,98.000
00:00:01.190,-0.115,-0.094,-0.185,0.099,98.000
00:00:01.200,-0.180,-0.098,-0.176,0.095,98.000
00:00:01.210,-0.190,-0.094,-0.171,0.092,98.000
00:00:01.220,-0.185,-0.091,-0.167,0.088,98.000
00:00:01.230,-0.185,-0.087,-0.163,0.084,98.000
00:00:01.240,-0.215,-0.083,-0.159,0.080,98.000
00:00:01.250,0.010,-0.080,-0.155,0.077,98.000
00:00:01.260,0.575,-0.079,-0.154,0.073,98.000
00:00:01.270,1.185,-0.079,-0.153,0.069,98.000
00:00:01.280,0.960,-0.078,-0.152,0.065,98.000
00:00:01.290,-0.160,-0.078,-0.151,0.062,98.000
00:00:01.300,-0.740,-0.077,-0.150,0.058,98.000
00:00:01.310,-0.640,-0.076,-0.145,0.054,98.000
00:00:01.320,-0.350,-0.076,-0.140,0.050,98.000
00:00:01.330,-0.175,-0.075,-0.135,0.046,98.000
00:00:01.340,-0.145,-0.074,-0.130,0.043,98.000
00:00:01.350,-0.150,-0.074,-0.125,0.039,98.000
00:00:01.360,-0.145,-0.073,-0.123,0.035,98.000
00:00:01.370,-0.105,-0.072,-0.121,0.031,98.000
00:00:01.380,-0.120,-0.072,-0.119,0.028,98.000
00:00:01.390,-0.090,-0.071,-0.117,0.024,98.000
00:00:01.400,-0.085,-0.071,-0.115,0.020,98.000
00:00:01.410,-0.070,-0.071,-0.110,0.017,98.000
00:00:01.420,-0.040,-0.072,-0.105,0.013,98.000
00:00:01.430,-0.020,-0.072,-0.100,0.009,98.000
00:00:01.440,0.005,-0.072,-0.094,0.005,98.000
00:00:01.450,0.020,-0.073,-0.089,0.002,98.000
00:00:01.460,0.045,-0.078,-0.093,-0.002,98.000
00:00:01.470,0.080,-0.083,-0.096,-0.006,98.000
00:00:01.480,0.115,-0.088,-0.099,-0.009,98.000
00:00:01.490,0.140,-0.094,-0.102,-0.013,98.000
00:00:01.500,0.165,-0.099,-0.105,-0.017,98.000
00:00:01.510,0.210,-0.104,-0.105,-0.020,98.000
00:00:01.520,0.190,-0.110,-0.105,-0.024,98.000
00:00:01.530,0.220,-0.115,-0.105,-0.027,98.000
00:00:01.540,0.210,-0.121,-0.105,-0.031,98.000
00:00:01.550,0.215,-0.126,-0.105,-0.034,98.000
00:00:01.560,0.215,-0.113,-0.095,-0.038,98.000
00:00:01.570,0.160,-0.100,-0.086,-0.042,98.000
00:00:01.580,0.135,-0.087,-0.076,-0.045,98.000
00:00:01.590,0.100,-0.074,-0.066,-0.049,98.000
00:00:01.600,0.050,-0.061,-0.057,-0.053,98.000
00:00:01.610,0.035,-0.068,-0.060,-0.056,98.000
00:00:01.620,-0.005,-0.075,-0.064,-0.060,98.000
00:00:01.630,0.005,-0.082,-0.068,-0.064,98.000
00:00:01.640,-0.005,-0.089,-0.072,-0.067,98.000
00:00:01.650,-0.015,-0.096,-0.075,-0.071,98.000
00:00:01.660,-0.020,-0.094,-0.072,-0.074,98.000
00:00:01.670,-0.010,-0.092,-0.070,-0.078,98.000
00:00:01.680,0.000,-0.090,-0.067,-0.081,98.000
00:00:01.690,-0.020,-0.089,-0.064,-0.085,98.000
00:00:01.700,-0.005,-0.087,-0.062,-0.088,98.000
00:00:01.710,-0.040,-0.079,-0.056,-0.091,98.000
00:00:01.720,-0.035,-0.070,-0.049,-0.095,98.000
00:00:01.730,-0.050,-0.061,-0.043,-0.098,98.000
00:00:01.740,-0.040,-0.053,-0.037,-0.101,98.000
00:00:01.750,-0.055,-0.044,-0.031,-0.105,98.000
00:00:01.760,-0.075,-0.052,-0.034,-0.108,98.000
00:00:01.770,-0.050,-0.059,-0.037,-0.111,98.000
00:00:01.780,-0.075,-0.066,-0.040,-0.114,98.000
00:00:01.790,-0.090,-0.073,-0.043,-0.117,98.000
00:00:01.800,-0.080,-0.080,-0.045,-0.120,98.000
00:00:01.810,-0.090,-0.079,-0.044,-0.124,98.000
00:00:01.820,-0.080,-0.078,-0.042,-0.127,98.000
00:00:01.830,-0.075,-0.077,-0.041,-0.130,98.000
00:00:01.840,-0.085,-0.076,-0.039,-0.133,98.000
00:00:01.850,-0.085,-0.075,-0.038,-0.137,98.000
00:00:01.860,-0.095,-0.079,-0.038,-0.139,98.000
00:00:01.870,-0.095,-0.084,-0.038,-0.142,98.000
00:00:01.880,-0.105,-0.088,-0.038,-0.145,98.000
00:00:01.890,-0.080,-0.092,-0.039,-0.148,98.000
00:00:01.900,-0.115,-0.096,-0.039,-0.151,98.000
00:00:01.910,-0.100,-0.093,-0.036,-0.154,98.000
00:00:01.920,-0.095,-0.089,-0.033,-0.157,98.000
00:00:01.930,-0.100,-0.086,-0.030,-0.159,98.000
00:00:01.940,-0.075,-0.082,-0.027,-0.162,98.000
00:00:01.950,-0.005,-0.079,-0.024,-0.165,98.000
00:00:01.960,0.010,-0.071,-0.018,-0.167,98.000
00:00:01.970,0.055,-0.063,-0.013,-0.170,98.000
00:00:01.980,0.185,-0.056,-0.007,-0.173,98.000
00:00:01.990,0.145,-0.048,-0.001,-0.175,98.000
00:00:02.000,0.075,-0.040,0.004,-0.178,98.000
00:00:02.010,-0.005,-0.038,0.007,-0.181,98.000
00:00:02.020,-0.025,-0.036,0.011,-0.183,98.000
00:00:02.030,-0.110,-0.034,0.014,-0.186,98.000
00:00:02.040,-0.175,-0.033,0.017,-0.188,98.000
00:00:02.050,-0.180,-0.031,0.020,-0.191,98.000
00:00:02.060,-0.220,-0.028,0.022,-0.193,98.000
00:00:02.070,-0.175,-0.025,0.025,-0.196,98.000
00:00:02.080,-0.240,-0.022,0.028,-0.198,98.000
00:00:02.090,-0.030,-0.019,0.030,-0.201,98.000
00:00:02.100,0.530,-0.017,0.033,-0.203,98.000
00:00:02.110,1.210,-0.016,0.035,-0.205,98.000
00:00:02.120,1.220,-0.015,0.037,-0.208,98.000
00:00:02.130,-0.105,-0.014,0.039,-0.210,98.000
00:00:02.140,-0.795,-0.013,0.041,-0.213,98.000
00:00:02.150,-0.690,-0.012,0.043,-0.215,98.000
00:00:02.160,-0.375,-0.009,0.045,-0.217,98.000
00:00:02.170,-0.165,-0.006,0.048,-0.219,98.000
00:00:02.180,-0.155,-0.003,0.051,-0.222,98.000
00:00:02.190,-0.135,-0.000,0.054,-0.224,98.000
00:00:02.200,-0.150,0.003,0.057,-0.226,98.000
00:00:02.210,-0.120,0.005,0.058,-0.228,98.000
00:00:02.220,-0.120,0.007,0.060,-0.230,98.000
00:00:02.230,-0.090,0.009,0.061,-0.232,98.000
00:00:02.240,-0.095,0.011,0.062,-0.234,98.000
00:00:02.250,-0.050,0.013,0.064,-0.237,98.000
00:00:02.260,-0.050,0.013,0.065,-0.238,98.000
00:00:02.270,-0.010,0.014,0.065,-0.240,98.000
00:00:02.280,-0.005,0.014,0.066,-0.242,98.000
00:00:02.290,0.030,0.015,0.067,-0.244,98.000
00:00:02.300,0.080,0.016,0.068,-0.246,98.000
00:00:02.310,0.075,0.013,0.069,-0.248,98.000
00:00:02.320,0.145,0.011,0.070,-0.250,98.000
00:00:02.330,0.155,0.008,0.071,-0.251,98.000
00:00:02.340,0.200,0.006,0.072,-0.253,98.000
00:00:02.350,0.200,0.004,0.074,-0.255,98.000
00:00:02.360,0.240,0.002,0.076,-0.257,98.000
00:00:02.370,0.235,0.001,0.079,-0.258,98.000
00:00:02.380,0.245,-0.000,0.082,-0.260,98.000
00:00:02.390,0.245,-0.002,0.085,-0.262,98.000
00:00:02.400,0.215,-0.003,0.088,-0.264,98.000
00:00:02.410,0.180,-0.008,0.093,-0.265,98.000
00:00:02.420,0.150,-0.013,0.098,-0.267,98.000
00:00:02.430,0.090,-0.018,0.103,-0.269,98.000
00:00:02.440,0.035,-0.023,0.108,-0.270,98.000
00:00:02.450,0.025,-0.028,0.113,-0.272,98.000
00:00:02.460,0.000,-0.035,0.117,-0.273,98.000
00:00:02.470,-0.015,-0.041,0.120,-0.275,98.000
00:00:02.480,-0.030,-0.048,0.124,-0.276,98.000
00:00:02.490,0.000,-0.055,0.128,-0.278,98.000
00:00:02.500,-0.020,-0.062,0.131,-0.279,98.000
00:00:02.510,-0.005,-0.056,0.134,-0.281,98.000
00:00:02.520,-0.025,-0.049,0.137,-0.282,98.000
00:00:02.530,-0.030,-0.043,0.139,-0.284,98.000
00:00:02.540,-0.015,-0.037,0.142,-0.285,98.000
00:00:02.550,-0.010,-0.030,0.145,-0.287,98.000
00:00:02.560,-0.035,-0.033,0.149,-0.288,98.000
00:00:02.570,-0.040,-0.035,0.154,-0.290,98.000
00:00:02.580,-0.050,-0.037,0.158,-0.291,98.000
00:00:02.590,-0.045,-0.039,0.163,-0.293,98.000
00:00:02.600,-0.040,-0.041,0.167,-0.294,98.000
00:00:02.610,-0.075,-0.048,0.169,-0.295,98.000
00:00:02.620,-0.065,-0.055,0.171,-0.297,98.000
00:00:02.630,-0.095,-0.061,0.172,-0.298,98.000
00:00:02.640,-0.085,-0.068,0.174,-0.299,98.000
00:00:02.650,-0.085,-0.075,0.175,-0.301,98.000
00:00:02.660,-0.090,-0.079,0.182,-0.302,98.000
00:00:02.670,-0.100,-0.083,0.189,-0.303,98.000
00:00:02.680,-0.100,-0.087,0.196,-0.305,98.000
00:00:02.690,-0.080,-0.092,0.203,-0.306,98.000
00:00:02.700,-0.105,-0.096,0.210,-0.307,98.000
00:00:02.710,-0.105,-0.098,0.217,-0.308,98.000
00:00:02.720,-0.100,-0.099,0.223,-0.310,98.000
00:00:02.730,-0.105,-0.101,0.230,-0.311,98.000
00:00:02.740,-0.095,-0.102,0.236,-0.312,98.000
00:00:02.750,-0.100,-0.104,0.243,-0.313,98.000
00:00:02.760,-0.090,-0.096,0.239,-0.314,98.000
00:00:02.770,-0.035,-0.088,0.235,-0.315,98.000
00:00:02.780,0.010,-0.080,0.231,-0.317,98.000
00:00:02.790,0.035,-0.072,0.227,-0.318,98.000
00:00:02.800,0.070,-0.064,0.224,-0.319,98.000
00:00:02.810,0.190,-0.061,0.226,-0.320,98.000
00:00:02.820,0.125,-0.058,0.228,-0.322,98.000
00:00:02.830,0.045,-0.056,0.230,-0.323,98.000
00:00:02.840,-0.035,-0.053,0.232,-0.324,98.000
00:00:02.850,-0.060,-0.051,0.234,-0.326,98.000
00:00:02.860,-0.155,-0.049,0.236,-0.327,98.000
00:00:02.870,-0.210,-0.047,0.239,-0.327,98.000
00:00:02.880,-0.225,-0.045,0.241,-0.328,98.000
00:00:02.890,-0.200,-0.043,0.244,-0.329,98.000
00:00:02.900,-0.215,-0.041,0.246,-0.330,98.000
00:00:02.910,-0.265,-0.048,0.246,-0.331,98.000
00:00:02.920,0.070,-0.054,0.246,-0.332,98.000
00:00:02.930,0.865,-0.061,0.246,-0.333,98.000
00:00:02.940,1.495,-0.067,0.246,-0.334,98.000
00:00:02.950,0.625,-0.074,0.246,-0.334,98.000
00:00:02.960,-0.440,-0.077,0.248,-0.335,98.000
00:00:02.970,-0.815,-0.081,0.250,-0.336,98.000
00:00:02.980,-0.600,-0.085,0.253,-0.336,98.000
00:00:02.990,-0.310,-0.088,0.255,-0.337,98.000
00:00:03.000,-0.175,-0.092,0.257,-0.337,98.000
00:00:03.010,-0.180,-0.087,0.254,-0.337,98.000
00:00:03.020,-0.165,-0.082,0.251,-0.337,98.000
00:00:03.030,-0.135,-0.077,0.249,-0.337,98.000
00:00:03.040,-0.135,-0.071,0.246,-0.337,98.000
00:00:03.050,-0.115,-0.066,0.243,-0.337,98.000
00:00:03.060,-0.105,-0.061,0.236,-0.336,98.000
00:00:03.070,-0.085,-0.056,0.230,-0.335,98.000
00:00:03.080,-0.060,-0.051,0.224,-0.334,98.000
00:00:03.090,-0.030,-0.046,0.218,-0.333,98.000
00:00:03.100,-0.020,-0.040,0.212,-0.332,98.000
00:00:03.110,0.015,-0.038,0.208,-0.330,98.000
00:00:03.120,0.050,-0.035,0.204,-0.327,98.000
00:00:03.130,0.070,-0.032,0.200,-0.325,98.000
00:00:03.140,0.105,-0.029,0.197,-0.323,98.000
00:00:03.150,0.165,-0.026,0.193,-0.321,98.000
00:00:03.160,0.200,-0.029,0.191,-0.318,98.000
00:00:03.170,0.205,-0.031,0.189,-0.315,98.000
00:00:03.180,0.235,-0.033,0.187,-0.311,98.000
00:00:03.190,0.235,-0.036,0.185,-0.308,98.000
00:00:03.200,0.265,-0.038,0.183,-0.305,98.000
00:00:03.210,0.260,-0.032,0.179,-0.301,98.000
00:00:03.220,0.235,-0.026,0.175,-0.297,98.000
00:00:03.230,0.215,-0.020,0.171,-0.293,98.000
00:00:03.240,0.170,-0.013,0.167,-0.289,98.000
00:00:03.250,0.125,-0.007,0.163,-0.285,98.000
00:00:03.260,0.090,-0.008,0.160,-0.282,98.000
00:00:03.270,0.025,-0.009,0.156,-0.278,98.000
00:00:03.280,-0.015,-0.010,0.152,-0.274,98.000
00:00:03.290,-0.030,-0.011,0.149,-0.271,98.000
00:00:03.300,-0.035,-0.012,0.145,-0.267,98.000
00:00:03.310,-0.040,-0.017,0.145,-0.263,98.000
00:00:03.320,-0.040,-0.021,0.144,-0.259,98.000
00:00:03.330,-0.035,-0.025,0.144,-0.256,98.000
00:00:03.340,-0.040,-0.030,0.143,-0.252,98.000
00:00:03.350,-0.020,-0.034,0.143,-0.248,98.000
00:00:03.360,-0.040,-0.029,0.141,-0.245,98.000
00:00:03.370,-0.040,-0.024,0.138,-0.241,98.000
00:00:03.380,-0.030,-0.020,0.136,-0.237,98.000
00:00:03.390,-0.045,-0.015,0.134,-0.233,98.000
00:00:03.400,-0.065,-0.010,0.131,-0.229,98.000
00:00:03.410,-0.060,-0.011,0.128,-0.226,98.000
00:00:03.420,-0.060,-0.011,0.124,-0.222,98.000
00:00:03.430,-0.090,-0.012,0.120,-0.219,98.000
00:00:03.440,-0.080,-0.013,0.116,-0.215,98.000
00:00:03.450,-0.095,-0.013,0.112,-0.211,98.000
00:00:03.460,-0.085,-0.011,0.109,-0.208,98.000
00:00:03.470,-0.105,-0.010,0.106,-0.205,98.000
00:00:03.480,-0.090,-0.008,0.103,-0.201,98.000
00:00:03.490,-0.100,-0.006,0.100,-0.198,98.000
00:00:03.500,-0.105,-0.004,0.096,-0.194,98.000
00:00:03.510,-0.115,-0.004,0.094,-0.191,98.000
00:00:03.520,-0.100,-0.003,0.092,-0.187,98.000
00:00:03.530,-0.115,-0.002,0.089,-0.184,98.000
00:00:03.540,-0.110,-0.001,0.087,-0.181,98.000
00:00:03.550,-0.135,-0.000,0.084,-0.177,98.000
00:00:03.560,-0.095,-0.002,0.083,-0.174,98.000
00:00:03.570,-0.125,-0.004,0.082,-0.170,98.000
00:00:03.580,-0.105,-0.005,0.080,-0.167,98.000
00:00:03.590,-0.085,-0.007,0.079,-0.164,98.000
00:00:03.600,-0.015,-0.009,0.077,-0.160,98.000
00:00:03.610,0.020,-0.006,0.075,-0.157,98.000
00:00:03.620,0.030,-0.003,0.072,-0.153,98.000
00:00:03.630,0.135,0.000,0.069,-0.150,98.000
00:00:03.640,0.160,0.003,0.066,-0.147,98.000
00:00:03.650,0.105,0.006,0.063,-0.143,98.000
00:00:03.660,0.030,0.008,0.063,-0.140,98.000
00:00:03.670,-0.050,0.010,0.063,-0.137,98.000
00:00:03.680,-0.050,0.013,0.063,-0.134,98.000
00:00:03.690,-0.170,0.015,0.063,-0.130,98.000
00:00:03.700,-0.205,0.017,0.062,-0.127,98.000
00:00:03.710,-0.215,0.017,0.061,-0.124,98.000
00:00:03.720,-0.175,0.017,0.060,-0.121,98.000
00:00:03.730,-0.210,0.017,0.059,-0.118,98.000
00:00:03.740,-0.215,0.017,0.058,-0.115,98.000
00:00:03.750,0.175,0.017,0.057,-0.112,98.000
00:00:03.760,1.090,0.015,0.054,-0.109,98.000
00:00:03.770,1.700,0.013,0.051,-0.106,98.000
00:00:03.780,0.335,0.011,0.049,-0.103,98.000
00:00:03.790,-0.615,0.009,0.046,-0.100,98.000
00:00:03.800,-0.705,0.007,0.043,-0.097,98.000
00:00:03.810,-0.460,0.004,0.041,-0.094,98.000
00:00:03.820,-0.175,0.001,0.038,-0.091,98.000
00:00:03.830,-0.165,-0.003,0.035,-0.088,98.000
00:00:03.840,-0.145,-0.006,0.032,-0.084,98.000
00:00:03.850,-0.155,-0.009,0.030,-0.081,98.000
00:00:03.860,-0.115,-0.011,0.027,-0.078,98.000
00:00:03.870,-0.120,-0.013,0.024,-0.075,98.000
00:00:03.880,-0.105,-0.015,0.021,-0.072,98.000
00:00:03.890,-0.105,-0.016,0.018,-0.069,98.000
00:00:03.900,-0.085,-0.018,0.015,-0.066,98.000
00:00:03.910,-0.060,-0.022,0.011,-0.063,98.000
00:00:03.920,-0.015,-0.026,0.006,-0.060,98.000
00:00:03.930,-0.005,-0.030,0.001,-0.057,98.000
00:00:03.940,0.020,-0.035,-0.004,-0.053,98.000
00:00:03.950,0.050,-0.039,-0.009,-0.050,98.000
00:00:03.960,0.080,-0.044,-0.014,-0.047,98.000
00:00:03.970,0.105,-0.049,-0.019,-0.044,98.000
00:00:03.980,0.180,-0.055,-0.024,-0.041,98.000
00:00:03.990,0.205,-0.060,-0.029,-0.038,98.000
00:00:04.000,0.240,-0.065,-0.034,-0.035,98.000
00:00:04.010,0.235,-0.062,-0.032,-0.032,98.000
00:00:04.020,0.270,-0.058,-0.030,-0.029,98.000
00:00:04.030,0.270,-0.054,-0.029,-0.026,98.000
00:00:04.040,0.280,-0.051,-0.027,-0.023,98.000
00:00:04.050,0.260,-0.047,-0.026,-0.020,98.000
00:00:04.060,0.230,-0.053,-0.031,-0.017,98.000
00:00:04.070,0.175,-0.059,-0.036,-0.014,98.000
00:00:04.080,0.135,-0.065,-0.041,-0.011,98.000
00:00:04.090,0.090,-0.071,-0.046,-0.008,98.000
00:00:04.100,0.045,-0.077,-0.051,-0.006,98.000
00:00:04.110,0.000,-0.075,-0.051,-0.003,98.000
00:00:04.120,-0.005,-0.073,-0.050,0.000,98.000
00:00:04.130,-0.025,-0.071,-0.050,0.003,98.000
00:00:04.140,-0.025,-0.069,-0.049,0.006,98.000
00:00:04.150,-0.025,-0.067,-0.049,0.009,98.000
00:00:04.160,-0.020,-0.063,-0.047,0.012,98.000
00:00:04.170,0.000,-0.060,-0.045,0.014,98.000
00:00:04.180,-0.005,-0.056,-0.044,0.017,98.000
00:00:04.190,-0.005,-0.053,-0.042,0.020,98.000
00:00:04.200,-0.005,-0.049,-0.040,0.023,98.000
00:00:04.210,-0.005,-0.058,-0.047,0.026,98.000
00:00:04.220,-0.010,-0.067,-0.054,0.028,98.000
00:00:04.230,-0.025,-0.076,-0.061,0.031,98.000
00:00:04.240,-0.020,-0.085,-0.068,0.034,98.000
00:00:04.250,-0.040,-0.094,-0.075,0.036,98.000
00:00:04.260,-0.040,-0.092,-0.074,0.039,98.000
00:00:04.270,-0.040,-0.089,-0.073,0.041,98.000
00:00:04.280,-0.050,-0.087,-0.072,0.044,98.000
00:00:04.290,-0.060,-0.085,-0.071,0.046,98.000
00:00:04.300,-0.050,-0.083,-0.071,0.049,98.000
00:00:04.310,-0.065,-0.081,-0.071,0.051,98.000
00:00:04.320,-0.060,-0.079,-0.071,0.054,98.000
00:00:04.330,-0.070,-0.077,-0.071,0.056,98.000
00:00:04.340,-0.060,-0.075,-0.071,0.059,98.000
00:00:04.350,-0.090,-0.072,-0.071,0.061,98.000
00:00:04.360,-0.080,-0.070,-0.070,0.064,98.000
00:00:04.370,-0.095,-0.068,-0.069,0.066,98.000
00:00:04.380,-0.085,-0.065,-0.068,0.068,98.000
00:00:04.390,-0.100,-0.063,-0.067,0.071,98.000
00:00:04.400,-0.090,-0.061,-0.066,0.073,98.000
00:00:04.410,-0.095,-0.060,-0.066,0.075,98.000
00:00:04.420,-0.085,-0.059,-0.067,0.077,98.000
00:00:04.430,-0.100,-0.058,-0.067,0.080,98.000
00:00:04.440,-0.075,-0.056,-0.067,0.082,98.000
00:00:04.450,-0.095,-0.055,-0.067,0.084,98.000
00:00:04.460,-0.080,-0.054,-0.070,0.086,98.000
00:00:04.470,-0.075,-0.053,-0.073,0.088,98.000
00:00:04.480,0.000,-0.051,-0.075,0.090,98.000
00:00:04.490,0.030,-0.050,-0.078,0.093,98.000
00:00:04.500,0.035,-0.049,-0.081,0.095,98.000
00:00:04.510,0.135,-0.049,-0.084,0.097,98.000
00:00:04.520,0.145,-0.048,-0.087,0.099,98.000
00:00:04.530,0.070,-0.048,-0.089,0.101,98.000
00:00:04.540,0.015,-0.048,-0.092,0.103,98.000
00:00:04.550,-0.045,-0.048,-0.095,0.105,98.000
00:00:04.560,-0.055,-0.050,-0.099,0.106,98.000
00:00:04.570,-0.185,-0.053,-0.104,0.108,98.000
00:00:04.580,-0.190,-0.055,-0.108,0.110,98.000
00:00:04.590,-0.220,-0.058,-0.113,0.112,98.000
00:00:04.600,-0.180,-0.060,-0.117,0.114,98.000
00:00:04.610,-0.210,-0.061,-0.121,0.116,98.000
00:00:04.620,-0.185,-0.062,-0.125,0.118,98.000
00:00:04.630,0.220,-0.063,-0.129,0.119,98.000
00:00:04.640,1.150,-0.064,-0.133,0.121,98.000
00:00:04.650,1.720,-0.065,-0.137,0.123,98.000
00:00:04.660,0.155,-0.066,-0.142,0.124,98.000
00:00:04.670,-0.700,-0.067,-0.148,0.126,98.000
00:00:04.680,-0.660,-0.068,-0.154,0.128,98.000
00:00:04.690,-0.405,-0.070,-0.160,0.129,98.000
00:00:04.700,-0.150,-0.071,-0.165,0.131,98.000
00:00:04.710,-0.160,-0.075,-0.162,0.132,98.000
00:00:04.720,-0.135,-0.079,-0.160,0.134,98.000
00:00:04.730,-0.145,-0.083,-0.157,0.135,98.000
00:00:04.740,-0.120,-0.087,-0.154,0.137,98.000
00:00:04.750,-0.125,-0.091,-0.151,0.138,98.000
00:00:04.760,-0.090,-0.090,-0.157,0.139,98.000
00:00:04.770,-0.090,-0.088,-0.164,0.141,98.000
00:00:04.780,-0.055,-0.087,-0.170,0.142,98.000
00:00:04.790,-0.040,-0.085,-0.176,0.143,98.000
00:00:04.800,-0.015,-0.083,-0.182,0.145,98.000
00:00:04.810,0.000,-0.084,-0.192,0.146,98.000
00:00:04.820,0.030,-0.084,-0.201,0.148,98.000
00:00:04.830,0.050,-0.085,-0.211,0.149,98.000
00:00:04.840,0.095,-0.085,-0.220,0.150,98.000
00:00:04.850,0.110,-0.085,-0.230,0.152,98.000
00:00:04.860,0.165,-0.088,-0.231,0.153,98.000
00:00:04.870,0.190,-0.091,-0.233,0.155,98.000
00:00:04.880,0.230,-0.094,-0.234,0.156,98.000
00:00:04.890,0.245,-0.097,-0.236,0.157,98.000
00:00:04.900,0.255,-0.100,-0.237,0.159,98.000
00:00:04.910,0.255,-0.092,-0.244,0.160,98.000
00:00:04.920,0.265,-0.085,-0.251,0.162,98.000
00:00:04.930,0.255,-0.077,-0.258,0.163,98.000
00:00:04.940,0.230,-0.070,-0.265,0.164,98.000
00:00:04.950,0.185,-0.062,-0.272,0.166,98.000
00:00:04.960,0.145,-0.065,-0.273,0.167,98.000
00:00:04.970,0.100,-0.069,-0.273,0.169,98.000
00:00:04.980,0.060,-0.072,-0.274,0.170,98.000
00:00:04.990,0.025,-0.075,-0.275,0.171,98.000
00:00:05.000,0.025,-0.078,-0.276,0.173,98.000
00:00:05.010,0.010,-0.079,-0.277,0.174,98.000
00:00:05.020,0.010,-0.080,-0.279,0.176,98.000
00:00:05.030,0.010,-0.080,-0.281,0.177,98.000
00:00:05.040,0.015,-0.081,-0.282,0.179,98.000
00:00:05.050,0.010,-0.082,-0.284,0.180,98.000
00:00:05.060,0.025,-0.080,-0.286,0.182,98.000
00:00:05.070,0.020,-0.078,-0.287,0.183,98.000
00:00:05.080,0.020,-0.076,-0.289,0.185,98.000
00:00:05.090,0.020,-0.074,-0.291,0.186,98.000
00:00:05.100,0.015,-0.072,-0.293,0.188,98.000
00:00:05.110,0.000,-0.073,-0.294,0.189,98.000
00:00:05.120,0.000,-0.074,-0.295,0.191,98.000
00:00:05.130,-0.010,-0.075,-0.296,0.192,98.000
00:00:05.140,-0.015,-0.076,-0.297,0.194,98.000
00:00:05.150,-0.020,-0.078,-0.298,0.195,98.000
00:00:05.160,-0.030,-0.076,-0.300,0.196,98.000
00:00:05.170,-0.035,-0.074,-0.303,0.198,98.000
00:00:05.180,-0.035,-0.072,-0.306,0.199,98.000
00:00:05.190,-0.045,-0.070,-0.309,0.200,98.000
00:00:05.200,-0.040,-0.068,-0.312,0.201,98.000
00:00:05.210,-0.045,-0.069,-0.313,0.203,98.000
00:00:05.220,-0.045,-0.071,-0.313,0.204,98.000
00:00:05.230,-0.055,-0.073,-0.314,0.205,98.000
00:00:05.240,-0.045,-0.074,-0.315,0.207,98.000
00:00:05.250,-0.055,-0.076,-0.316,0.208,98.000
00:00:05.260,-0.045,-0.078,-0.317,0.209,98.000
00:00:05.270,-0.060,-0.080,-0.318,0.211,98.000
00:00:05.280,-0.050,-0.082,-0.318,0.212,98.000
00:00:05.290,-0.060,-0.084,-0.319,0.214,98.000
00:00:05.300,-0.055,-0.086,-0.320,0.215,98.000
00:00:05.310,-0.080,-0.084,-0.322,0.216,98.000
00:00:05.320,-0.065,-0.083,-0.324,0.218,98.000
00:00:05.330,-0.090,-0.081,-0.326,0.219,98.000
00:00:05.340,-0.075,-0.080,-0.327,0.220,98.000
00:00:05.350,-0.090,-0.078,-0.329,0.222,98.000
00:00:05.360,-0.070,-0.080,-0.328,0.223,98.000
00:00:05.370,-0.075,-0.081,-0.327,0.224,98.000
00:00:05.380,-0.065,-0.083,-0.326,0.225,98.000
00:00:05.390,-0.080,-0.085,-0.325,0.226,98.000
00:00:05.400,-0.065,-0.087,-0.324,0.228,98.000
00:00:05.410,-0.030,-0.095,-0.321,0.229,98.000
00:00:05.420,0.025,-0.103,-0.319,0.230,98.000
00:00:05.430,0.040,-0.112,-0.317,0.231,98.000
00:00:05.440,0.065,-0.120,-0.314,0.232,98.000
00:00:05.450,0.180,-0.128,-0.312,0.234,98.000
00:00:05.460,0.145,-0.127,-0.315,0.235,98.000
00:00:05.470,0.055,-0.127,-0.318,0.236,98.000
00:00:05.480,0.015,-0.126,-0.321,0.237,98.000
00:00:05.490,-0.035,-0.125,-0.324,0.239,98.000
00:00:05.500,-0.060,-0.124,-0.327,0.240,98.000
00:00:05.510,-0.175,-0.120,-0.330,0.241,98.000
00:00:05.520,-0.170,-0.116,-0.333,0.242,98.000
00:00:05.530,-0.195,-0.111,-0.335,0.243,98.000
00:00:05.540,-0.175,-0.107,-0.338,0.245,98.000
00:00:05.550,-0.220,-0.102,-0.341,0.246,98.000
00:00:05.560,-0.115,-0.097,-0.344,0.247,98.000
00:00:05.570,0.355,-0.092,-0.346,0.248,98.000
00:00:05.580,1.240,-0.088,-0.349,0.249,98.000
00:00:05.590,1.595,-0.083,-0.352,0.251,98.000
00:00:05.600,-0.115,-0.078,-0.355,0.252,98.000
00:00:05.610,-0.815,-0.074,-0.357,0.253,98.000
00:00:05.620,-0.565,-0.070,-0.358,0.254,98.000
00:00:05.630,-0.300,-0.066,-0.360,0.255,98.000
00:00:05.640,-0.130,-0.062,-0.361,0.256,98.000
00:00:05.650,-0.160,-0.059,-0.362,0.257,98.000
00:00:05.660,-0.130,-0.061,-0.362,0.258,98.000
00:00:05.670,-0.135,-0.064,-0.361,0.259,98.000
00:00:05.680,-0.110,-0.067,-0.361,0.260,98.000
00:00:05.690,-0.120,-0.070,-0.360,0.261,98.000
00:00:05.700,-0.090,-0.073,-0.360,0.262,98.000
00:00:05.710,-0.085,-0.072,-0.363,0.263,98.000
00:00:05.720,-0.055,-0.071,-0.365,0.264,98.000
00:00:05.730,-0.040,-0.071,-0.368,0.265,98.000
00:00:05.740,-0.005,-0.070,-0.371,0.265,98.000
00:00:05.750,0.000,-0.070,-0.374,0.266,98.000
00:00:05.760,0.040,-0.071,-0.377,0.267,98.000
00:00:05.770,0.050,-0.073,-0.380,0.268,98.000
00:00:05.780,0.095,-0.074,-0.384,0.269,98.000
00:00:05.790,0.125,-0.076,-0.387,0.270,98.000
00:00:05.800,0.170,-0.078,-0.390,0.271,98.000
00:00:05.810,0.190,-0.078,-0.392,0.271,98.000
00:00:05.820,0.220,-0.079,-0.394,0.272,98.000
00:00:05.830,0.230,-0.080,-0.396,0.273,98.000
00:00:05.840,0.245,-0.080,-0.398,0.274,98.000
00:00:05.850,0.250,-0.081,-0.400,0.275,98.000
00:00:05.860,0.260,-0.084,-0.400,0.275,98.000
00:00:05.870,0.240,-0.087,-0.400,0.276,98.000
00:00:05.880,0.220,-0.091,-0.400,0.277,98.000
00:00:05.890,0.175,-0.094,-0.401,0.278,98.000
00:00:05.900,0.135,-0.097,-0.401,0.279,98.000
00:00:05.910,0.085,-0.103,-0.401,0.280,98.000
00:00:05.920,0.055,-0.109,-0.401,0.280,98.000
00:00:05.930,0.020,-0.116,-0.402,0.281,98.000
00:00:05.940,0.015,-0.122,-0.402,0.282,98.000
00:00:05.950,0.010,-0.128,-0.402,0.282,98.000
00:00:05.960,0.010,-0.123,-0.401,0.283,98.000
00:00:05.970,0.000,-0.119,-0.401,0.283,98.000
00:00:05.980,0.000,-0.114,-0.400,0.284,98.000
00:00:05.990,0.000,-0.110,-0.400,0.284,98.000
00:00:06.000,0.010,-0.105,-0.399,0.285,98.000
00:00:06.010,0.005,-0.114,-0.397,0.285,98.000
00:00:06.020,0.020,-0.122,-0.396,0.286,98.000
00:00:06.030,0.010,-0.131,-0.394,0.287,98.000
00:00:06.040,0.000,-0.140,-0.392,0.288,98.000
00:00:06.050,-0.010,-0.149,-0.390,0.288,98.000
00:00:06.060,-0.015,-0.149,-0.391,0.289,98.000
00:00:06.070,-0.020,-0.149,-0.393,0.290,98.000
00:00:06.080,-0.020,-0.150,-0.395,0.290,98.000
00:00:06.090,-0.025,-0.150,-0.396,0.291,98.000
00:00:06.100,-0.035,-0.151,-0.398,0.292,98.000
00:00:06.110,-0.030,-0.135,-0.400,0.292,98.000
00:00:06.120,-0.045,-0.120,-0.401,0.292,98.000
00:00:06.130,-0.050,-0.104,-0.403,0.293,98.000
00:00:06.140,-0.050,-0.089,-0.405,0.293,98.000
00:00:06.150,-0.055,-0.073,-0.407,0.294,98.000
00:00:06.160,-0.065,-0.081,-0.406,0.294,98.000
00:00:06.170,-0.065,-0.089,-0.406,0.295,98.000
00:00:06.180,-0.060,-0.097,-0.405,0.295,98.000
00:00:06.190,-0.065,-0.104,-0.405,0.296,98.000
00:00:06.200,-0.070,-0.112,-0.404,0.296,98.000
00:00:06.210,-0.060,-0.121,-0.404,0.297,98.000
00:00:06.220,-0.060,-0.130,-0.404,0.297,98.000
00:00:06.230,-0.055,-0.139,-0.404,0.298,98.000
00:00:06.240,-0.060,-0.148,-0.404,0.298,98.000
00:00:06.250,-0.065,-0.157,-0.405,0.299,98.000
00:00:06.260,-0.080,-0.147,-0.404,0.299,98.000
00:00:06.270,-0.065,-0.137,-0.403,0.300,98.000
00:00:06.280,-0.080,-0.128,-0.403,0.300,98.000
00:00:06.290,-0.065,-0.118,-0.402,0.301,98.000
00:00:06.300,-0.075,-0.108,-0.401,0.301,98.000
00:00:06.310,-0.070,-0.107,-0.401,0.302,98.000
00:00:06.320,-0.085,-0.106,-0.401,0.302,98.000
00:00:06.330,-0.070,-0.105,-0.400,0.302,98.000
00:00:06.340,-0.085,-0.104,-0.400,0.303,98.000
00:00:06.350,-0.075,-0.103,-0.399,0.303,98.000
00:00:06.360,-0.085,-0.107,-0.399,0.304,98.000
00:00:06.370,-0.060,-0.111,-0.399,0.304,98.000
00:00:06.380,-0.045,-0.115,-0.399,0.305,98.000
00:00:06.390,0.020,-0.119,-0.399,0.305,98.000
00:00:06.400,0.040,-0.123,-0.399,0.305,98.000
00:00:06.410,0.055,-0.120,-0.398,0.306,98.000
00:00:06.420,0.180,-0.118,-0.397,0.306,98.000
00:00:06.430,0.155,-0.115,-0.397,0.306,98.000
00:00:06.440,0.060,-0.112,-0.396,0.306,98.000
00:00:06.450,0.020,-0.109,-0.395,0.307,98.000
00:00:06.460,-0.025,-0.106,-0.394,0.307,98.000
00:00:06.470,-0.055,-0.103,-0.394,0.307,98.000
00:00:06.480,-0.180,-0.100,-0.393,0.307,98.000
00:00:06.490,-0.160,-0.096,-0.392,0.307,98.000
00:00:06.500,-0.170,-0.093,-0.392,0.307,98.000
00:00:06.510,-0.165,-0.093,-0.392,0.307,98.000
00:00:06.520,-0.195,-0.094,-0.392,0.306,98.000
00:00:06.530,-0.100,-0.094,-0.392,0.306,98.000
00:00:06.540,0.350,-0.094,-0.391,0.305,98.000
00:00:06.550,1.115,-0.095,-0.391,0.305,98.000
00:00:06.560,1.495,-0.101,-0.390,0.303,98.000
00:00:06.570,-0.040,-0.107,-0.389,0.302,98.000
00:00:06.580,-0.730,-0.114,-0.388,0.300,98.000
00:00:06.590,-0.620,-0.120,-0.387,0.298,98.000
00:00:06.600,-0.365,-0.126,-0.386,0.297,98.000
00:00:06.610,-0.130,-0.121,-0.384,0.294,98.000
00:00:06.620,-0.150,-0.116,-0.383,0.291,98.000
00:00:06.630,-0.135,-0.110,-0.382,0.289,98.000
00:00:06.640,-0.150,-0.105,-0.380,0.286,98.000
00:00:06.650,-0.120,-0.100,-0.379,0.283,98.000
00:00:06.660,-0.130,-0.102,-0.379,0.280,98.000
00:00:06.670,-0.105,-0.104,-0.379,0.277,98.000
00:00:06.680,-0.090,-0.107,-0.379,0.274,98.000
00:00:06.690,-0.055,-0.109,-0.379,0.271,98.000
00:00:06.700,-0.060,-0.111,-0.379,0.268,98.000
00:00:06.710,-0.035,-0.112,-0.380,0.265,98.000
00:00:06.720,-0.015,-0.114,-0.380,0.262,98.000
00:00:06.730,0.020,-0.115,-0.380,0.259,98.000
00:00:06.740,0.045,-0.116,-0.381,0.256,98.000
00:00:06.750,0.065,-0.117,-0.381,0.253,98.000
00:00:06.760,0.095,-0.112,-0.380,0.250,98.000
00:00:06.770,0.145,-0.106,-0.379,0.247,98.000
00:00:06.780,0.180,-0.100,-0.378,0.244,98.000
00:00:06.790,0.215,-0.095,-0.377,0.241,98.000
00:00:06.800,0.200,-0.089,-0.376,0.238,98.000
00:00:06.810,0.225,-0.093,-0.374,0.236,98.000
00:00:06.820,0.235,-0.097,-0.372,0.234,98.000
00:00:06.830,0.245,-0.101,-0.370,0.231,98.000
00:00:06.840,0.235,-0.105,-0.368,0.229,98.000
00:00:06.850,0.225,-0.109,-0.367,0.227,98.000
00:00:06.860,0.175,-0.106,-0.365,0.224,98.000
00:00:06.870,0.130,-0.103,-0.363,0.222,98.000
00:00:06.880,0.090,-0.100,-0.361,0.220,98.000
00:00:06.890,0.050,-0.097,-0.359,0.218,98.000
00:00:06.900,0.035,-0.094,-0.357,0.215,98.000
00:00:06.910,0.015,-0.094,-0.354,0.213,98.000
00:00:06.920,0.005,-0.094,-0.351,0.211,98.000
00:00:06.930,0.000,-0.094,-0.348,0.208,98.000
00:00:06.940,-0.005,-0.094,-0.345,0.206,98.000
00:00:06.950,0.000,-0.094,-0.342,0.204,98.000
00:00:06.960,0.000,-0.092,-0.340,0.201,98.000
00:00:06.970,0.000,-0.090,-0.338,0.199,98.000
00:00:06.980,0.000,-0.088,-0.335,0.197,98.000
00:00:06.990,-0.005,-0.087,-0.333,0.194,98.000
00:00:07.000,-0.005,-0.085,-0.331,0.192,98.000
00:00:07.010,-0.020,-0.084,-0.329,0.189,98.000
00:00:07.020,-0.020,-0.083,-0.328,0.187,98.000
00:00:07.030,-0.040,-0.082,-0.326,0.184,98.000
00:00:07.040,-0.050,-0.081,-0.325,0.182,98.000
00:00:07.050,-0.060,-0.080,-0.323,0.179,98.000
00:00:07.060,-0.060,-0.085,-0.321,0.176,98.000
00:00:07.070,-0.060,-0.089,-0.318,0.174,98.000
00:00:07.080,-0.070,-0.095,-0.315,0.171,98.000
00:00:07.090,-0.065,-0.099,-0.313,0.168,98.000
00:00:07.100,-0.075,-0.104,-0.310,0.165,98.000
00:00:07.110,-0.070,-0.099,-0.308,0.162,98.000
00:00:07.120,-0.065,-0.093,-0.305,0.160,98.000
00:00:07.130,-0.075,-0.087,-0.303,0.157,98.000
00:00:07.140,-0.075,-0.082,-0.301,0.154,98.000
00:00:07.150,-0.075,-0.076,-0.298,0.151,98.000
00:00:07.160,-0.090,-0.069,-0.295,0.148,98.000
00:00:07.170,-0.075,-0.063,-0.292,0.145,98.000
00:00:07.180,-0.085,-0.056,-0.289,0.142,98.000
00:00:07.190,-0.080,-0.049,-0.287,0.140,98.000
00:00:07.200,-0.090,-0.043,-0.284,0.137,98.000
00:00:07.210,-0.075,-0.049,-0.277,0.134,98.000
00:00:07.220,-0.090,-0.055,-0.270,0.131,98.000
00:00:07.230,-0.080,-0.062,-0.263,0.128,98.000
00:00:07.240,-0.090,-0.068,-0.256,0.126,98.000
00:00:07.250,-0.080,-0.074,-0.249,0.123,98.000
00:00:07.260,-0.100,-0.075,-0.246,0.120,98.000
00:00:07.270,-0.085,-0.076,-0.242,0.118,98.000
00:00:07.280,-0.100,-0.077,-0.239,0.115,98.000
00:00:07.290,-0.075,-0.077,-0.235,0.113,98.000
00:00:07.300,-0.085,-0.078,-0.232,0.110,98.000
00:00:07.310,-0.090,-0.075,-0.228,0.108,98.000
00:00:07.320,-0.075,-0.072,-0.224,0.105,98.000
00:00:07.330,-0.015,-0.069,-0.220,0.103,98.000
00:00:07.340,0.025,-0.066,-0.216,0.100,98.000
00:00:07.350,0.055,-0.062,-0.212,0.098,98.000
00:00:07.360,0.155,-0.067,-0.206,0.095,98.000
00:00:07.370,0.160,-0.072,-0.201,0.093,98.000
00:00:07.380,0.095,-0.076,-0.195,0.090,98.000
00:00:07.390,0.015,-0.081,-0.189,0.088,98.000
00:00:07.400,-0.035,-0.086,-0.184,0.085,98.000
00:00:07.410,-0.050,-0.087,-0.182,0.083,98.000
00:00:07.420,-0.175,-0.088,-0.180,0.081,98.000
00:00:07.430,-0.170,-0.090,-0.178,0.078,98.000
00:00:07.440,-0.190,-0.091,-0.176,0.076,98.000
00:00:07.450,-0.175,-0.093,-0.174,0.073,98.000
00:00:07.460,-0.200,-0.087,-0.171,0.071,98.000
00:00:07.470,-0.105,-0.082,-0.169,0.069,98.000
00:00:07.480,0.335,-0.076,-0.167,0.066,98.000
00:00:07.490,1.095,-0.070,-0.165,0.064,98.000
00:00:07.500,1.470,-0.065,-0.163,0.062,98.000
00:00:07.510,0.065,-0.061,-0.162,0.059,98.000
00:00:07.520,-0.660,-0.058,-0.161,0.057,98.000
00:00:07.530,-0.690,-0.054,-0.161,0.054,98.000
00:00:07.540,-0.440,-0.051,-0.160,0.052,98.000
00:00:07.550,-0.185,-0.047,-0.160,0.050,98.000
00:00:07.560,-0.160,-0.049,-0.153,0.047,98.000
00:00:07.570,-0.135,-0.050,-0.146,0.045,98.000
00:00:07.580,-0.135,-0.051,-0.140,0.043,98.000
00:00:07.590,-0.115,-0.052,-0.133,0.041,98.000
00:00:07.600,-0.115,-0.053,-0.126,0.039,98.000
00:00:07.610,-0.110,-0.054,-0.127,0.037,98.000
00:00:07.620,-0.095,-0.055,-0.127,0.035,98.000
00:00:07.630,-0.055,-0.056,-0.127,0.033,98.000
00:00:07.640,-0.050,-0.057,-0.128,0.031,98.000
00:00:07.650,-0.015,-0.058,-0.128,0.029,98.000
00:00:07.660,-0.005,-0.064,-0.130,0.027,98.000
00:00:07.670,0.045,-0.070,-0.131,0.025,98.000
00:00:07.680,0.050,-0.077,-0.133,0.024,98.000
00:00:07.690,0.095,-0.083,-0.135,0.022,98.000
00:00:07.700,0.120,-0.090,-0.136,0.020,98.000
00:00:07.710,0.165,-0.086,-0.129,0.019,98.000
00:00:07.720,0.185,-0.083,-0.122,0.017,98.000
00:00:07.730,0.210,-0.080,-0.114,0.016,98.000
00:00:07.740,0.225,-0.077,-0.107,0.015,98.000
00:00:07.750,0.245,-0.073,-0.100,0.013,98.000
00:00:07.760,0.240,-0.077,-0.102,0.012,98.000
00:00:07.770,0.240,-0.081,-0.104,0.011,98.000
00:00:07.780,0.235,-0.085,-0.106,0.010,98.000
00:00:07.790,0.210,-0.089,-0.108,0.008,98.000
00:00:07.800,0.165,-0.093,-0.110,0.007,98.000
00:00:07.810,0.125,-0.093,-0.108,0.006,98.000
00:00:07.820,0.070,-0.093,-0.106,0.005,98.000
00:00:07.830,0.045,-0.093,-0.104,0.004,98.000
00:00:07.840,0.010,-0.093,-0.102,0.003,98.000
00:00:07.850,0.020,-0.093,-0.100,0.003,98.000
00:00:07.860,0.005,-0.089,-0.098,0.002,98.000
00:00:07.870,0.000,-0.084,-0.097,0.001,98.000
00:00:07.880,0.000,-0.079,-0.095,0.000,98.000
00:00:07.890,0.000,-0.075,-0.093,-0.000,98.000
00:00:07.900,0.000,-0.070,-0.091,-0.001,98.000
00:00:07.910,0.000,-0.074,-0.091,-0.002,98.000
00:00:07.920,-0.005,-0.078,-0.091,-0.002,98.000
00:00:07.930,-0.010,-0.082,-0.090,-0.003,98.000
00:00:07.940,-0.005,-0.086,-0.090,-0.004,98.000
00:00:07.950,-0.025,-0.090,-0.090,-0.004,98.000
00:00:07.960,-0.005,-0.084,-0.086,-0.005,98.000
00:00:07.970,-0.040,-0.077,-0.081,-0.005,98.000
00:00:07.980,-0.040,-0.071,-0.077,-0.005,98.000
00:00:07.990,-0.045,-0.065,-0.073,-0.006,98.000
00:00:08.000,-0.045,-0.059,-0.069,-0.006,98.000
00:00:08.010,-0.040,-0.061,-0.070,-0.007,98.000
00:00:08.020,-0.055,-0.062,-0.071,-0.007,98.000
00:00:08.030,-0.065,-0.064,-0.072,-0.008,98.000
00:00:08.040,-0.050,-0.066,-0.074,-0.009,98.000
00:00:08.050,-0.065,-0.068,-0.075,-0.009,98.000
00:00:08.060,-0.065,-0.073,-0.077,-0.010,98.000
00:00:08.070,-0.065,-0.079,-0.080,-0.010,98.000
00:00:08.080,-0.065,-0.084,-0.083,-0.011,98.000
00:00:08.090,-0.070,-0.090,-0.085,-0.011,98.000
00:00:08.100,-0.065,-0.095,-0.088,-0.012,98.000
00:00:08.110,-0.070,-0.096,-0.088,-0.012,98.000
00:00:08.120,-0.065,-0.097,-0.089,-0.013,98.000
00:00:08.130,-0.070,-0.098,-0.089,-0.013,98.000
00:00:08.140,-0.070,-0.099,-0.090,-0.014,98.000
00:00:08.150,-0.085,-0.100,-0.090,-0.014,98.000
00:00:08.160,-0.060,-0.092,-0.084,-0.015,98.000
00:00:08.170,-0.090,-0.084,-0.078,-0.016,98.000
00:00:08.180,-0.065,-0.077,-0.072,-0.016,98.000
00:00:08.190,-0.085,-0.069,-0.066,-0.017,98.000
00:00:08.200,-0.080,-0.061,-0.060,-0.017,98.000
00:00:08.210,-0.085,-0.061,-0.060,-0.018,98.000
00:00:08.220,-0.050,-0.062,-0.060,-0.018,98.000
00:00:08.230,-0.090,-0.062,-0.060,-0.018,98.000
00:00:08.240,-0.075,-0.062,-0.060,-0.019,98.000
00:00:08.250,-0.055,-0.063,-0.060,-0.019,98.000
00:00:08.260,0.005,-0.065,-0.062,-0.020,98.000
00:00:08.270,0.055,-0.068,-0.063,-0.020,98.000
00:00:08.280,0.060,-0.071,-0.065,-0.021,98.000
00:00:08.290,0.160,-0.074,-0.066,-0.021,98.000
00:00:08.300,0.155,-0.076,-0.067,-0.022,98.000
00:00:08.310,0.080,-0.079,-0.069,-0.022,98.000
00:00:08.320,0.015,-0.082,-0.071,-0.022,98.000
00:00:08.330,-0.020,-0.085,-0.073,-0.023,98.000
00:00:08.340,-0.045,-0.088,-0.075,-0.023,98.000
00:00:08.350,-0.170,-0.092,-0.077,-0.023,98.000
00:00:08.360,-0.170,-0.094,-0.079,-0.024,98.000
00:00:08.370,-0.175,-0.097,-0.080,-0.024,98.000
00:00:08.380,-0.160,-0.099,-0.082,-0.024,98.000
00:00:08.390,-0.200,-0.102,-0.084,-0.024,98.000
00:00:08.400,-0.105,-0.104,-0.085,-0.024,98.000
00:00:08.410,0.360,-0.100,-0.083,-0.024,98.000
00:00:08.420,1.160,-0.096,-0.080,-0.024,98.000
00:00:08.430,1.550,-0.091,-0.077,-0.024,98.000
00:00:08.440,0.070,-0.087,-0.074,-0.025,98.000
00:00:08.450,-0.690,-0.083,-0.072,-0.025,98.000
00:00:08.460,-0.660,-0.091,-0.077,-0.024,98.000
00:00:08.470,-0.410,-0.099,-0.082,-0.023,98.000
00:00:08.480,-0.155,-0.106,-0.087,-0.022,98.000
00:00:08.490,-0.155,-0.114,-0.092,-0.022,98.000
00:00:08.500,-0.135,-0.122,-0.097,-0.021,98.000
00:00:08.510,-0.135,-0.117,-0.094,-0.019,98.000
00:00:08.520,-0.105,-0.111,-0.090,-0.018,98.000
00:00:08.530,-0.110,-0.105,-0.087,-0.016,98.000
00:00:08.540,-0.085,-0.100,-0.084,-0.015,98.000
00:00:08.550,-0.090,-0.094,-0.080,-0.013,98.000
00:00:08.560,-0.065,-0.092,-0.080,-0.011,98.000
00:00:08.570,-0.045,-0.091,-0.081,-0.009,98.000
00:00:08.580,-0.005,-0.089,-0.081,-0.006,98.000
00:00:08.590,0.000,-0.088,-0.081,-0.004,98.000
00:00:08.600,0.040,-0.086,-0.081,-0.002,98.000
00:00:08.610,0.065,-0.093,-0.086,0.000,98.000
00:00:08.620,0.100,-0.099,-0.091,0.003,98.000
00:00:08.630,0.120,-0.106,-0.096,0.005,98.000
00:00:08.640,0.175,-0.112,-0.102,0.007,98.000
00:00:08.650,0.190,-0.119,-0.107,0.010,98.000
00:00:08.660,0.230,-0.116,-0.105,0.012,98.000
00:00:08.670,0.255,-0.113,-0.103,0.015,98.000
00:00:08.680,0.270,-0.111,-0.102,0.017,98.000
00:00:08.690,0.265,-0.108,-0.100,0.020,98.000
00:00:08.700,0.275,-0.105,-0.098,0.022,98.000
00:00:08.710,0.245,-0.104,-0.098,0.025,98.000
00:00:08.720,0.215,-0.103,-0.097,0.028,98.000
00:00:08.730,0.175,-0.101,-0.097,0.030,98.000
00:00:08.740,0.140,-0.100,-0.096,0.033,98.000
00:00:08.750,0.095,-0.098,-0.096,0.035,98.000
00:00:08.760,0.040,-0.094,-0.094,0.038,98.000
00:00:08.770,0.025,-0.090,-0.092,0.040,98.000
00:00:08.780,0.015,-0.086,-0.089,0.043,98.000
00:00:08.790,0.000,-0.082,-0.087,0.045,98.000
00:00:08.800,0.000,-0.078,-0.085,0.048,98.000
00:00:08.810,0.000,-0.083,-0.089,0.050,98.000
00:00:08.820,0.000,-0.088,-0.092,0.053,98.000
00:00:08.830,0.000,-0.093,-0.096,0.055,98.000
00:00:08.840,0.000,-0.098,-0.099,0.058,98.000
00:00:08.850,0.000,-0.103,-0.102,0.060,98.000
00:00:08.860,0.000,-0.102,-0.102,0.062,98.000
00:00:08.870,-0.005,-0.102,-0.102,0.065,98.000
00:00:08.880,-0.010,-0.101,-0.102,0.067,98.000
00:00:08.890,-0.010,-0.100,-0.102,0.069,98.000
00:00:08.900,-0.015,-0.100,-0.102,0.072,98.000
00:00:08.910,-0.030,-0.097,-0.101,0.074,98.000
00:00:08.920,-0.035,-0.094,-0.099,0.076,98.000
00:00:08.930,-0.045,-0.092,-0.098,0.078,98.000
00:00:08.940,-0.045,-0.089,-0.097,0.080,98.000
00:00:08.950,-0.050,-0.086,-0.095,0.083,98.000
00:00:08.960,-0.045,-0.089,-0.101,0.085,98.000
00:00:08.970,-0.065,-0.091,-0.107,0.087,98.000
00:00:08.980,-0.070,-0.094,-0.113,0.089,98.000
00:00:08.990,-0.075,-0.097,-0.119,0.091,98.000
00:00:09.000,-0.070,-0.099,-0.125,0.093,98.000
00:00:09.010,-0.090,-0.092,-0.130,0.095,98.000
00:00:09.020,-0.085,-0.086,-0.135,0.097,98.000
00:00:09.030,-0.090,-0.079,-0.140,0.100,98.000
00:00:09.040,-0.070,-0.073,-0.145,0.102,98.000
00:00:09.050,-0.085,-0.066,-0.151,0.104,98.000
00:00:09.060,-0.085,-0.064,-0.156,0.106,98.000
00:00:09.070,-0.095,-0.062,-0.161,0.107,98.000
00:00:09.080,-0.085,-0.059,-0.166,0.109,98.000
00:00:09.090,-0.090,-0.057,-0.172,0.111,98.000
00:00:09.100,-0.085,-0.055,-0.177,0.113,98.000
00:00:09.110,-0.090,-0.062,-0.174,0.114,98.000
00:00:09.120,-0.090,-0.069,-0.171,0.116,98.000
00:00:09.130,-0.100,-0.077,-0.168,0.118,98.000
00:00:09.140,-0.090,-0.084,-0.165,0.119,98.000
00:00:09.150,-0.105,-0.091,-0.162,0.121,98.000
00:00:09.160,-0.090,-0.093,-0.161,0.123,98.000
00:00:09.170,-0.100,-0.095,-0.160,0.125,98.000
00:00:09.180,-0.085,-0.097,-0.159,0.127,98.000
00:00:09.190,-0.055,-0.098,-0.157,0.128,98.000
00:00:09.200,0.000,-0.100,-0.156,0.130,98.000
00:00:09.210,0.035,-0.097,-0.163,0.132,98.000
00:00:09.220,0.050,-0.094,-0.170,0.133,98.000
00:00:09.230,0.170,-0.091,-0.176,0.135,98.000
00:00:09.240,0.135,-0.087,-0.183,0.137,98.000
00:00:09.250,0.060,-0.084,-0.189,0.138,98.000
00:00:09.260,0.010,-0.086,-0.190,0.140,98.000
00:00:09.270,-0.035,-0.089,-0.190,0.141,98.000
00:00:09.280,-0.075,-0.091,-0.190,0.143,98.000
00:00:09.290,-0.190,-0.093,-0.190,0.144,98.000
00:00:09.300,-0.185,-0.096,-0.190,0.146,98.000
00:00:09.310,-0.205,-0.097,-0.194,0.148,98.000
00:00:09.320,-0.180,-0.099,-0.197,0.149,98.000
00:00:09.330,-0.225,-0.101,-0.201,0.151,98.000
00:00:09.340,-0.110,-0.103,-0.204,0.153,98.000
00:00:09.350,0.380,-0.105,-0.208,0.154,98.000
00:00:09.360,1.215,-0.100,-0.215,0.156,98.000
00:00:09.370,1.545,-0.096,-0.223,0.158,98.000
00:00:09.380,-0.025,-0.091,-0.230,0.159,98.000
00:00:09.390,-0.765,-0.086,-0.238,0.161,98.000
00:00:09.400,-0.620,-0.082,-0.245,0.162,98.000
00:00:09.410,-0.370,-0.081,-0.244,0.164,98.000
00:00:09.420,-0.155,-0.081,-0.242,0.165,98.000
00:00:09.430,-0.170,-0.081,-0.240,0.166,98.000
00:00:09.440,-0.145,-0.081,-0.239,0.168,98.000
00:00:09.450,-0.160,-0.080,-0.237,0.169,98.000
00:00:09.460,-0.130,-0.089,-0.235,0.171,98.000
00:00:09.470,-0.145,-0.097,-0.232,0.172,98.000
00:00:09.480,-0.125,-0.106,-0.230,0.174,98.000
00:00:09.490,-0.120,-0.115,-0.227,0.175,98.000
00:00:09.500,-0.080,-0.123,-0.225,0.177,98.000
00:00:09.510,-0.065,-0.119,-0.235,0.178,98.000
00:00:09.520,-0.035,-0.114,-0.245,0.179,98.000
00:00:09.530,-0.020,-0.110,-0.255,0.181,98.000
00:00:09.540,0.010,-0.106,-0.266,0.182,98.000
00:00:09.550,0.035,-0.102,-0.276,0.184,98.000
00:00:09.560,0.080,-0.097,-0.283,0.185,98.000
00:00:09.570,0.105,-0.092,-0.291,0.186,98.000
00:00:09.580,0.155,-0.087,-0.298,0.188,98.000
00:00:09.590,0.180,-0.082,-0.306,0.189,98.000
00:00:09.600,0.220,-0.077,-0.314,0.190,98.000
00:00:09.610,0.225,-0.082,-0.312,0.192,98.000
00:00:09.620,0.240,-0.087,-0.311,0.193,98.000
00:00:09.630,0.235,-0.092,-0.310,0.194,98.000
00:00:09.640,0.245,-0.098,-0.309,0.195,98.000
00:00:09.650,0.225,-0.103,-0.308,0.197,98.000
00:00:09.660,0.200,-0.103,-0.309,0.198,98.000
00:00:09.670,0.155,-0.103,-0.309,0.199,98.000
00:00:09.680,0.115,-0.103,-0.310,0.201,98.000
00:00:09.690,0.075,-0.104,-0.311,0.202,98.000
00:00:09.700,0.050,-0.104,-0.312,0.203,98.000
00:00:09.710,0.020,-0.102,-0.314,0.205,98.000
00:00:09.720,0.000,-0.100,-0.315,0.206,98.000
00:00:09.730,-0.010,-0.098,-0.317,0.207,98.000
00:00:09.740,-0.015,-0.096,-0.318,0.209,98.000
00:00:09.750,-0.010,-0.095,-0.320,0.210,98.000
00:00:09.760,-0.010,-0.100,-0.320,0.211,98.000
00:00:09.770,-0.005,-0.105,-0.319,0.212,98.000
00:00:09.780,0.000,-0.111,-0.319,0.213,98.000
00:00:09.790,0.000,-0.116,-0.319,0.215,98.000
00:00:09.800,0.000,-0.121,-0.319,0.216,98.000
00:00:09.810,0.000,-0.122,-0.319,0.217,98.000
00:00:09.820,0.000,-0.122,-0.319,0.218,98.000
00:00:09.830,-0.005,-0.122,-0.319,0.219,98.000
00:00:09.840,-0.010,-0.122,-0.319,0.221,98.000
00:00:09.850,-0.020,-0.122,-0.319,0.222,98.000
00:00:09.860,-0.025,-0.118,-0.322,0.223,98.000
00:00:09.870,-0.035,-0.115,-0.324,0.224,98.000
00:00:09.880,-0.045,-0.111,-0.327,0.225,98.000
00:00:09.890,-0.055,-0.107,-0.329,0.226,98.000
00:00:09.900,-0.055,-0.104,-0.332,0.227,98.000
00:00:09.910,-0.060,-0.110,-0.331,0.228,98.000
00:00:09.920,-0.060,-0.116,-0.329,0.229,98.000
00:00:09.930,-0.060,-0.121,-0.327,0.230,98.000
00:00:09.940,-0.055,-0.127,-0.326,0.231,98.000
00:00:09.950,-0.055,-0.133,-0.324,0.232,98.000
00:00:09.960,-0.055,-0.134,-0.324,0.233,98.000
00:00:09.970,-0.065,-0.135,-0.323,0.234,98.000
00:00:09.980,-0.060,-0.136,-0.322,0.235,98.000
00:00:09.990,-0.055,-0.137,-0.321,0.236,98.000
00:00:10.000,-0.045,-0.138,-0.321,0.237,98.000
00:00:10.010,-0.055,-0.140,-0.322,0.238,98.000
00:00:10.020,-0.055,-0.142,-0.323,0.239,98.000
00:00:10.030,-0.055,-0.144,-0.324,0.240,98.000
00:00:10.040,-0.055,-0.146,-0.325,0.241,98.000
00:00:10.050,-0.075,-0.148,-0.326,0.242,98.000
00:00:10.060,-0.065,-0.145,-0.326,0.243,98.000
00:00:10.070,-0.080,-0.142,-0.327,0.243,98.000
00:00:10.080,-0.065,-0.139,-0.327,0.244,98.000
00:00:10.090,-0.080,-0.135,-0.328,0.245,98.000
00:00:10.100,-0.075,-0.132,-0.328,0.246,98.000
00:00:10.110,-0.090,-0.127,-0.330,0.247,98.000
00:00:10.120,-0.085,-0.121,-0.331,0.248,98.000
00:00:10.130,-0.105,-0.116,-0.333,0.248,98.000
00:00:10.140,-0.090,-0.111,-0.334,0.249,98.000
00:00:10.150,-0.110,-0.105,-0.336,0.250,98.000
00:00:10.160,-0.095,-0.107,-0.336,0.251,98.000
00:00:10.170,-0.110,-0.108,-0.335,0.251,98.000
00:00:10.180,-0.100,-0.109,-0.335,0.252,98.000
00:00:10.190,-0.085,-0.110,-0.335,0.253,98.000
00:00:10.200,-0.025,-0.112,-0.335,0.254,98.000
00:00:10.210,0.010,-0.109,-0.336,0.254,98.000
00:00:10.220,0.010,-0.106,-0.337,0.255,98.000
00:00:10.230,0.100,-0.103,-0.338,0.256,98.000
00:00:10.240,0.135,-0.101,-0.339,0.256,98.000
00:00:10.250,0.075,-0.098,-0.340,0.257,98.000
00:00:10.260,0.000,-0.101,-0.339,0.258,98.000
00:00:10.270,-0.050,-0.104,-0.338,0.258,98.000
00:00:10.280,-0.045,-0.107,-0.337,0.259,98.000
00:00:10.290,-0.175,-0.110,-0.336,0.260,98.000
00:00:10.300,-0.195,-0.113,-0.335,0.260,98.000
00:00:10.310,-0.205,-0.113,-0.337,0.261,98.000
00:00:10.320,-0.190,-0.114,-0.339,0.262,98.000
00:00:10.330,-0.205,-0.115,-0.340,0.262,98.000
00:00:10.340,-0.220,-0.116,-0.342,0.263,98.000
00:00:10.350,0.145,-0.116,-0.343,0.263,98.000
00:00:10.360,1.025,-0.116,-0.345,0.264,98.000
00:00:10.370,1.605,-0.115,-0.346,0.264,98.000
00:00:10.380,0.240,-0.115,-0.348,0.265,98.000
00:00:10.390,-0.625,-0.114,-0.350,0.266,98.000
00:00:10.400,-0.665,-0.113,-0.351,0.266,98.000
00:00:10.410,-0.425,-0.117,-0.347,0.267,98.000
00:00:10.420,-0.180,-0.121,-0.343,0.267,98.000
00:00:10.430,-0.185,-0.126,-0.339,0.268,98.000
00:00:10.440,-0.175,-0.130,-0.335,0.268,98.000
00:00:10.450,-0.175,-0.134,-0.331,0.269,98.000
00:00:10.460,-0.150,-0.131,-0.331,0.270,98.000
00:00:10.470,-0.150,-0.129,-0.332,0.270,98.000
00:00:10.480,-0.120,-0.127,-0.332,0.271,98.000
00:00:10.490,-0.120,-0.125,-0.333,0.272,98.000
00:00:10.500,-0.090,-0.123,-0.333,0.272,98.000
00:00:10.510,-0.080,-0.131,-0.334,0.273,98.000
00:00:10.520,-0.045,-0.140,-0.335,0.274,98.000
00:00:10.530,-0.025,-0.148,-0.335,0.274,98.000
00:00:10.540,0.000,-0.157,-0.336,0.275,98.000
00:00:10.550,0.020,-0.166,-0.337,0.275,98.000
00:00:10.560,0.060,-0.172,-0.338,0.276,98.000
00:00:10.570,0.080,-0.178,-0.339,0.276,98.000
00:00:10.580,0.130,-0.184,-0.340,0.277,98.000
00:00:10.590,0.160,-0.190,-0.342,0.277,98.000
00:00:10.600,0.185,-0.196,-0.343,0.278,98.000
00:00:10.610,0.195,-0.189,-0.345,0.278,98.000
00:00:10.620,0.210,-0.183,-0.347,0.278,98.000
00:00:10.630,0.210,-0.177,-0.350,0.279,98.000
00:00:10.640,0.220,-0.171,-0.352,0.279,98.000
00:00:10.650,0.215,-0.164,-0.354,0.280,98.000
00:00:10.660,0.195,-0.165,-0.354,0.280,98.000
00:00:10.670,0.170,-0.166,-0.355,0.280,98.000
00:00:10.680,0.135,-0.166,-0.355,0.281,98.000
00:00:10.690,0.085,-0.167,-0.355,0.281,98.000
00:00:10.700,0.045,-0.168,-0.355,0.281,98.000
00:00:10.710,0.015,-0.159,-0.358,0.282,98.000
00:00:10.720,-0.005,-0.151,-0.362,0.282,98.000
00:00:10.730,-0.015,-0.142,-0.365,0.283,98.000
00:00:10.740,-0.015,-0.134,-0.369,0.283,98.000
00:00:10.750,-0.015,-0.125,-0.372,0.283,98.000
00:00:10.760,-0.005,-0.127,-0.371,0.284,98.000
00:00:10.770,-0.005,-0.130,-0.370,0.285,98.000
00:00:10.780,0.000,-0.132,-0.369,0.285,98.000
00:00:10.790,0.000,-0.134,-0.368,0.286,98.000
00:00:10.800,0.015,-0.136,-0.366,0.287,98.000
00:00:10.810,0.010,-0.143,-0.365,0.287,98.000
00:00:10.820,0.000,-0.150,-0.363,0.287,98.000
00:00:10.830,0.000,-0.157,-0.362,0.287,98.000
00:00:10.840,0.000,-0.163,-0.360,0.288,98.000
00:00:10.850,-0.010,-0.170,-0.359,0.288,98.000
00:00:10.860,-0.015,-0.162,-0.362,0.288,98.000
00:00:10.870,-0.025,-0.153,-0.365,0.288,98.000
00:00:10.880,-0.030,-0.144,-0.368,0.289,98.000
00:00:10.890,-0.025,-0.136,-0.372,0.289,98.000
00:00:10.900,-0.040,-0.127,-0.375,0.289,98.000
00:00:10.910,-0.045,-0.131,-0.374,0.289,98.000
00:00:10.920,-0.040,-0.135,-0.373,0.289,98.000
00:00:10.930,-0.050,-0.139,-0.373,0.290,98.000
00:00:10.940,-0.055,-0.144,-0.372,0.290,98.000
00:00:10.950,-0.045,-0.148,-0.371,0.290,98.000
00:00:10.960,-0.030,-0.146,-0.372,0.290,98.000
00:00:10.970,-0.045,-0.145,-0.374,0.291,98.000
00:00:10.980,-0.050,-0.144,-0.375,0.291,98.000
00:00:10.990,-0.040,-0.142,-0.376,0.291,98.000
00:00:11.000,-0.045,-0.141,-0.377,0.291,98.000
00:00:11.010,-0.055,-0.137,-0.379,0.292,98.000
00:00:11.020,-0.055,-0.133,-0.381,0.292,98.000
00:00:11.030,-0.065,-0.128,-0.383,0.293,98.000
00:00:11.040,-0.065,-0.124,-0.385,0.293,98.000
00:00:11.050,-0.065,-0.120,-0.387,0.293,98.000
00:00:11.060,-0.070,-0.123,-0.386,0.294,98.000
00:00:11.070,-0.080,-0.125,-0.386,0.294,98.000
00:00:11.080,-0.065,-0.128,-0.385,0.294,98.000
00:00:11.090,-0.075,-0.130,-0.384,0.294,98.000
00:00:11.100,-0.075,-0.133,-0.384,0.295,98.000
00:00:11.110,-0.080,-0.134,-0.384,0.295,98.000
00:00:11.120,-0.070,-0.135,-0.385,0.295,98.000
00:00:11.130,-0.080,-0.137,-0.385,0.295,98.000
00:00:11.140,-0.080,-0.138,-0.386,0.295,98.000
00:00:11.150,-0.085,-0.139,-0.386,0.295,98.000
00:00:11.160,-0.065,-0.144,-0.386,0.295,98.000
00:00:11.170,-0.080,-0.148,-0.386,0.295,98.000
00:00:11.180,-0.080,-0.152,-0.385,0.295,98.000
00:00:11.190,-0.090,-0.156,-0.385,0.296,98.000
00:00:11.200,-0.090,-0.161,-0.385,0.296,98.000
00:00:11.210,-0.075,-0.160,-0.384,0.296,98.000
00:00:11.220,-0.025,-0.159,-0.384,0.296,98.000
00:00:11.230,0.035,-0.158,-0.383,0.296,98.000
00:00:11.240,0.045,-0.157,-0.383,0.296,98.000
00:00:11.250,0.115,-0.157,-0.382,0.296,98.000
00:00:11.260,0.165,-0.156,-0.382,0.296,98.000
00:00:11.270,0.125,-0.156,-0.382,0.296,98.000
00:00:11.280,0.040,-0.155,-0.382,0.296,98.000
00:00:11.290,-0.015,-0.154,-0.381,0.296,98.000
00:00:11.300,-0.005,-0.154,-0.381,0.297,98.000
00:00:11.310,-0.135,-0.149,-0.383,0.297,98.000
00:00:11.320,-0.170,-0.144,-0.385,0.297,98.000
00:00:11.330,-0.185,-0.139,-0.387,0.297,98.000
00:00:11.340,-0.165,-0.134,-0.389,0.297,98.000
00:00:11.350,-0.180,-0.129,-0.391,0.297,98.000
00:00:11.360,-0.200,-0.129,-0.392,0.297,98.000
00:00:11.370,0.135,-0.129,-0.393,0.297,98.000
00:00:11.380,0.890,-0.130,-0.395,0.297,98.000
00:00:11.390,1.440,-0.130,-0.396,0.297,98.000
00:00:11.400,0.425,-0.131,-0.397,0.297,98.000
00:00:11.410,-0.470,-0.130,-0.396,0.297,98.000
00:00:11.420,-0.670,-0.129,-0.395,0.297,98.000
00:00:11.430,-0.455,-0.129,-0.393,0.297,98.000
00:00:11.440,-0.200,-0.128,-0.392,0.297,98.000
00:00:11.450,-0.155,-0.128,-0.391,0.297,98.000
00:00:11.460,-0.130,-0.123,-0.391,0.297,98.000
00:00:11.470,-0.140,-0.119,-0.390,0.297,98.000
00:00:11.480,-0.125,-0.115,-0.390,0.297,98.000
00:00:11.490,-0.130,-0.111,-0.390,0.297,98.000
00:00:11.500,-0.105,-0.106,-0.390,0.298,98.000
00:00:11.510,-0.110,-0.114,-0.392,0.298,98.000
00:00:11.520,-0.080,-0.121,-0.393,0.298,98.000
00:00:11.530,-0.060,-0.129,-0.395,0.298,98.000
00:00:11.540,-0.045,-0.136,-0.396,0.298,98.000
00:00:11.550,-0.030,-0.144,-0.398,0.298,98.000
00:00:11.560,0.005,-0.143,-0.400,0.298,98.000
00:00:11.570,0.015,-0.143,-0.403,0.298,98.000
00:00:11.580,0.045,-0.142,-0.405,0.298,98.000
00:00:11.590,0.085,-0.142,-0.407,0.297,98.000
00:00:11.600,0.110,-0.142,-0.409,0.297,98.000
00:00:11.610,0.140,-0.134,-0.409,0.297,98.000
00:00:11.620,0.180,-0.127,-0.410,0.296,98.000
00:00:11.630,0.205,-0.119,-0.410,0.295,98.000
00:00:11.640,0.215,-0.112,-0.410,0.294,98.000
00:00:11.650,0.215,-0.105,-0.410,0.294,98.000
00:00:11.660,0.235,-0.104,-0.409,0.292,98.000
00:00:11.670,0.225,-0.103,-0.408,0.290,98.000
00:00:11.680,0.225,-0.102,-0.406,0.289,98.000
00:00:11.690,0.190,-0.102,-0.405,0.287,98.000
00:00:11.700,0.160,-0.101,-0.404,0.286,98.000
00:00:11.710,0.125,-0.105,-0.404,0.284,98.000
00:00:11.720,0.070,-0.109,-0.403,0.282,98.000
00:00:11.730,0.035,-0.114,-0.403,0.280,98.000
00:00:11.740,0.015,-0.118,-0.402,0.278,98.000
00:00:11.750,0.010,-0.122,-0.402,0.277,98.000
00:00:11.760,0.005,-0.118,-0.400,0.275,98.000
00:00:11.770,0.005,-0.115,-0.399,0.273,98.000
00:00:11.780,0.000,-0.111,-0.397,0.271,98.000
00:00:11.790,0.005,-0.108,-0.396,0.269,98.000
00:00:11.800,0.010,-0.104,-0.394,0.268,98.000
00:00:11.810,0.005,-0.106,-0.393,0.266,98.000
00:00:11.820,0.005,-0.108,-0.392,0.264,98.000
00:00:11.830,0.010,-0.109,-0.391,0.262,98.000
00:00:11.840,0.000,-0.111,-0.389,0.260,98.000
00:00:11.850,0.005,-0.112,-0.388,0.259,98.000
00:00:11.860,0.000,-0.115,-0.388,0.257,98.000
00:00:11.870,-0.010,-0.117,-0.388,0.255,98.000
00:00:11.880,-0.015,-0.120,-0.387,0.253,98.000
00:00:11.890,-0.020,-0.122,-0.387,0.251,98.000
00:00:11.900,-0.015,-0.125,-0.387,0.250,98.000
00:00:11.910,-0.025,-0.115,-0.387,0.248,98.000
00:00:11.920,-0.030,-0.106,-0.387,0.246,98.000
00:00:11.930,-0.030,-0.096,-0.387,0.245,98.000
00:00:11.940,-0.040,-0.087,-0.386,0.243,98.000
00:00:11.950,-0.035,-0.077,-0.386,0.241,98.000
00:00:11.960,-0.035,-0.078,-0.385,0.240,98.000
00:00:11.970,-0.040,-0.078,-0.384,0.238,98.000
00:00:11.980,-0.045,-0.079,-0.383,0.236,98.000
00:00:11.990,-0.045,-0.080,-0.382,0.234,98.000
00:00:12.000,-0.050,-0.080,-0.382,0.233,98.000
00:00:12.010,-0.045,-0.079,-0.380,0.231,98.000
00:00:12.020,-0.055,-0.078,-0.378,0.229,98.000
00:00:12.030,-0.055,-0.078,-0.376,0.227,98.000
00:00:12.040,-0.060,-0.077,-0.375,0.225,98.000
00:00:12.050,-0.060,-0.076,-0.373,0.223,98.000
00:00:12.060,-0.065,-0.075,-0.372,0.221,98.000
00:00:12.070,-0.055,-0.075,-0.370,0.219,98.000
00:00:12.080,-0.065,-0.075,-0.369,0.217,98.000
00:00:12.090,-0.065,-0.074,-0.368,0.216,98.000
00:00:12.100,-0.065,-0.074,-0.366,0.214,98.000
00:00:12.110,-0.060,-0.082,-0.364,0.212,98.000
00:00:12.120,-0.060,-0.090,-0.363,0.211,98.000
00:00:12.130,-0.060,-0.098,-0.361,0.209,98.000
00:00:12.140,-0.070,-0.106,-0.359,0.207,98.000
00:00:12.150,-0.060,-0.114,-0.357,0.206,98.000
00:00:12.160,-0.080,-0.113,-0.356,0.204,98.000
00:00:12.170,-0.075,-0.112,-0.355,0.202,98.000
00:00:12.180,-0.075,-0.110,-0.354,0.200,98.000
00:00:12.190,-0.075,-0.109,-0.353,0.198,98.000
00:00:12.200,-0.080,-0.108,-0.352,0.196,98.000
00:00:12.210,-0.070,-0.106,-0.352,0.194,98.000
00:00:12.220,-0.065,-0.105,-0.351,0.193,98.000
00:00:12.230,-0.010,-0.103,-0.350,0.191,98.000
00:00:12.240,0.030,-0.101,-0.349,0.189,98.000
00:00:12.250,0.050,-0.100,-0.349,0.187,98.000
00:00:12.260,0.100,-0.096,-0.347,0.185,98.000
00:00:12.270,0.200,-0.092,-0.346,0.184,98.000
00:00:12.280,0.145,-0.087,-0.344,0.182,98.000
00:00:12.290,0.055,-0.083,-0.342,0.180,98.000
00:00:12.300,-0.005,-0.079,-0.341,0.179,98.000
00:00:12.310,0.000,-0.077,-0.341,0.177,98.000
00:00:12.320,-0.120,-0.074,-0.341,0.175,98.000
00:00:12.330,-0.160,-0.072,-0.340,0.174,98.000
00:00:12.340,-0.170,-0.070,-0.340,0.172,98.000
00:00:12.350,-0.160,-0.067,-0.340,0.170,98.000
00:00:12.360,-0.175,-0.070,-0.339,0.169,98.000
00:00:12.370,-0.210,-0.072,-0.339,0.168,98.000
00:00:12.380,0.125,-0.074,-0.338,0.166,98.000
00:00:12.390,0.835,-0.077,-0.337,0.165,98.000
00:00:12.400,1.350,-0.079,-0.336,0.163,98.000
00:00:12.410,0.530,-0.078,-0.334,0.162,98.000
00:00:12.420,-0.335,-0.078,-0.331,0.160,98.000
00:00:12.430,-0.675,-0.077,-0.328,0.159,98.000
00:00:12.440,-0.540,-0.076,-0.326,0.158,98.000
00:00:12.450,-0.250,-0.075,-0.323,0.156,98.000
00:00:12.460,-0.145,-0.077,-0.322,0.155,98.000
00:00:12.470,-0.145,-0.078,-0.321,0.154,98.000
00:00:12.480,-0.135,-0.080,-0.320,0.153,98.000
00:00:12.490,-0.115,-0.081,-0.319,0.151,98.000
00:00:12.500,-0.115,-0.082,-0.318,0.150,98.000
00:00:12.510,-0.090,-0.084,-0.318,0.149,98.000
00:00:12.520,-0.090,-0.086,-0.318,0.148,98.000
00:00:12.530,-0.075,-0.089,-0.318,0.147,98.000
00:00:12.540,-0.060,-0.091,-0.318,0.146,98.000
00:00:12.550,-0.025,-0.093,-0.318,0.145,98.000
00:00:12.560,0.000,-0.090,-0.319,0.144,98.000
00:00:12.570,0.030,-0.086,-0.321,0.143,98.000
00:00:12.580,0.040,-0.083,-0.322,0.142,98.000
00:00:12.590,0.080,-0.080,-0.323,0.141,98.000
00:00:12.600,0.095,-0.077,-0.325,0.140,98.000
00:00:12.610,0.130,-0.073,-0.323,0.139,98.000
00:00:12.620,0.160,-0.069,-0.322,0.138,98.000
00:00:12.630,0.205,-0.066,-0.321,0.137,98.000
00:00:12.640,0.210,-0.062,-0.320,0.136,98.000
00:00:12.650,0.220,-0.058,-0.319,0.136,98.000
00:00:12.660,0.225,-0.065,-0.314,0.135,98.000
00:00:12.670,0.250,-0.071,-0.309,0.134,98.000
00:00:12.680,0.250,-0.078,-0.304,0.133,98.000
00:00:12.690,0.230,-0.085,-0.299,0.132,98.000
00:00:12.700,0.195,-0.092,-0.294,0.131,98.000
00:00:12.710,0.170,-0.092,-0.294,0.131,98.000
00:00:12.720,0.115,-0.093,-0.295,0.130,98.000
00:00:12.730,0.075,-0.094,-0.295,0.129,98.000
00:00:12.740,0.050,-0.095,-0.295,0.128,98.000
00:00:12.750,0.035,-0.096,-0.295,0.128,98.000
00:00:12.760,0.005,-0.094,-0.293,0.127,98.000
00:00:12.770,0.015,-0.093,-0.292,0.126,98.000
00:00:12.780,0.030,-0.092,-0.290,0.125,98.000
00:00:12.790,0.025,-0.090,-0.288,0.124,98.000
00:00:12.800,0.020,-0.089,-0.286,0.124,98.000
00:00:12.810,0.020,-0.088,-0.285,0.123,98.000
00:00:12.820,0.030,-0.086,-0.285,0.122,98.000
00:00:12.830,0.020,-0.084,-0.284,0.121,98.000
00:00:12.840,0.035,-0.083,-0.283,0.120,98.000
00:00:12.850,0.015,-0.081,-0.283,0.120,98.000
00:00:12.860,0.005,-0.077,-0.283,0.119,98.000
00:00:12.870,0.005,-0.074,-0.283,0.118,98.000
00:00:12.880,-0.005,-0.070,-0.283,0.117,98.000
00:00:12.890,-0.005,-0.067,-0.283,0.117,98.000
00:00:12.900,-0.020,-0.063,-0.283,0.116,98.000
00:00:12.910,-0.010,-0.071,-0.277,0.115,98.000
00:00:12.920,-0.015,-0.079,-0.271,0.114,98.000
00:00:12.930,-0.035,-0.087,-0.264,0.113,98.000
00:00:12.940,-0.030,-0.095,-0.258,0.112,98.000
00:00:12.950,-0.025,-0.103,-0.251,0.111,98.000
00:00:12.960,-0.025,-0.108,-0.245,0.110,98.000
00:00:12.970,-0.025,-0.113,-0.239,0.109,98.000
00:00:12.980,-0.040,-0.119,-0.233,0.109,98.000
00:00:12.990,-0.040,-0.124,-0.228,0.108,98.000
00:00:13.000,-0.035,-0.130,-0.222,0.107,98.000
00:00:13.010,-0.030,-0.125,-0.221,0.106,98.000
00:00:13.020,-0.030,-0.120,-0.221,0.105,98.000
00:00:13.030,-0.040,-0.116,-0.220,0.104,98.000
00:00:13.040,-0.030,-0.111,-0.220,0.104,98.000
00:00:13.050,-0.040,-0.106,-0.219,0.103,98.000
00:00:13.060,-0.030,-0.103,-0.221,0.102,98.000
00:00:13.070,-0.035,-0.100,-0.222,0.101,98.000
00:00:13.080,-0.035,-0.097,-0.223,0.100,98.000
00:00:13.090,-0.045,-0.093,-0.225,0.100,98.000
00:00:13.100,-0.045,-0.090,-0.226,0.099,98.000
00:00:13.110,-0.065,-0.093,-0.221,0.098,98.000
00:00:13.120,-0.055,-0.097,-0.216,0.097,98.000
00:00:13.130,-0.060,-0.100,-0.212,0.096,98.000
00:00:13.140,-0.060,-0.104,-0.207,0.095,98.000
00:00:13.150,-0.075,-0.107,-0.202,0.095,98.000
00:00:13.160,-0.050,-0.104,-0.202,0.094,98.000
00:00:13.170,-0.060,-0.101,-0.201,0.093,98.000
00:00:13.180,-0.060,-0.099,-0.201,0.092,98.000
00:00:13.190,-0.065,-0.096,-0.200,0.092,98.000
00:00:13.200,-0.070,-0.093,-0.200,0.091,98.000
00:00:13.210,-0.040,-0.088,-0.201,0.090,98.000
00:00:13.220,0.010,-0.083,-0.203,0.089,98.000
00:00:13.230,0.055,-0.078,-0.204,0.089,98.000
00:00:13.240,0.075,-0.073,-0.206,0.088,98.000
00:00:13.250,0.180,-0.068,-0.208,0.087,98.000
00:00:13.260,0.185,-0.064,-0.210,0.087,98.000
00:00:13.270,0.100,-0.060,-0.212,0.086,98.000
00:00:13.280,0.025,-0.057,-0.215,0.085,98.000
00:00:13.290,-0.025,-0.053,-0.217,0.085,98.000
00:00:13.300,-0.055,-0.049,-0.219,0.084,98.000
00:00:13.310,-0.175,-0.054,-0.216,0.084,98.000
00:00:13.320,-0.165,-0.059,-0.213,0.083,98.000
00:00:13.330,-0.180,-0.064,-0.209,0.083,98.000
00:00:13.340,-0.170,-0.069,-0.206,0.082,98.000
00:00:13.350,-0.220,-0.074,-0.203,0.082,98.000
00:00:13.360,-0.100,-0.083,-0.194,0.081,98.000
00:00:13.370,0.365,-0.092,-0.185,0.081,98.000
00:00:13.380,1.095,-0.102,-0.176,0.081,98.000
00:00:13.390,1.450,-0.111,-0.167,0.080,98.000
00:00:13.400,0.065,-0.120,-0.158,0.080,98.000
00:00:13.410,-0.665,-0.119,-0.161,0.080,98.000
00:00:13.420,-0.670,-0.117,-0.163,0.079,98.000
00:00:13.430,-0.435,-0.116,-0.165,0.079,98.000
00:00:13.440,-0.185,-0.114,-0.167,0.079,98.000
00:00:13.450,-0.170,-0.113,-0.169,0.079,98.000
00:00:13.460,-0.150,-0.109,-0.172,0.079,98.000
00:00:13.470,-0.155,-0.106,-0.175,0.078,98.000
00:00:13.480,-0.130,-0.103,-0.179,0.078,98.000
00:00:13.490,-0.120,-0.099,-0.182,0.078,98.000
00:00:13.500,-0.095,-0.096,-0.185,0.078,98.000
00:00:13.510,-0.105,-0.093,-0.191,0.079,98.000
00:00:13.520,-0.070,-0.091,-0.196,0.079,98.000
00:00:13.530,-0.055,-0.088,-0.201,0.080,98.000
00:00:13.540,-0.025,-0.086,-0.206,0.080,98.000
00:00:13.550,-0.005,-0.084,-0.212,0.080,98.000
00:00:13.560,0.035,-0.084,-0.217,0.081,98.000
00:00:13.570,0.040,-0.084,-0.222,0.082,98.000
00:00:13.580,0.085,-0.084,-0.228,0.083,98.000
00:00:13.590,0.120,-0.084,-0.233,0.084,98.000
00:00:13.600,0.165,-0.084,-0.238,0.086,98.000
00:00:13.610,0.190,-0.084,-0.238,0.087,98.000
00:00:13.620,0.220,-0.083,-0.239,0.089,98.000
00:00:13.630,0.235,-0.083,-0.239,0.090,98.000
00:00:13.640,0.250,-0.083,-0.239,0.092,98.000
00:00:13.650,0.255,-0.082,-0.239,0.093,98.000
00:00:13.660,0.260,-0.084,-0.240,0.095,98.000
00:00:13.670,0.245,-0.086,-0.241,0.097,98.000
00:00:13.680,0.215,-0.087,-0.242,0.099,98.000
00:00:13.690,0.180,-0.089,-0.243,0.100,98.000
00:00:13.700,0.140,-0.091,-0.244,0.102,98.000
00:00:13.710,0.095,-0.091,-0.246,0.104,98.000
00:00:13.720,0.060,-0.092,-0.248,0.106,98.000
00:00:13.730,0.030,-0.092,-0.251,0.108,98.000
00:00:13.740,0.015,-0.092,-0.253,0.110,98.000
00:00:13.750,0.010,-0.093,-0.255,0.112,98.000
00:00:13.760,0.010,-0.093,-0.255,0.113,98.000
00:00:13.770,0.010,-0.093,-0.255,0.115,98.000
00:00:13.780,0.000,-0.094,-0.255,0.117,98.000
00:00:13.790,0.005,-0.094,-0.255,0.119,98.000
00:00:13.800,0.010,-0.094,-0.255,0.120,98.000
00:00:13.810,0.015,-0.097,-0.254,0.122,98.000
00:00:13.820,0.000,-0.100,-0.254,0.124,98.000
00:00:13.830,0.005,-0.103,-0.254,0.125,98.000
00:00:13.840,0.000,-0.106,-0.254,0.127,98.000
00:00:13.850,0.000,-0.109,-0.254,0.129,98.000
00:00:13.860,-0.020,-0.109,-0.256,0.130,98.000
00:00:13.870,-0.025,-0.108,-0.259,0.132,98.000
00:00:13.880,-0.015,-0.108,-0.262,0.134,98.000
00:00:13.890,-0.015,-0.107,-0.264,0.135,98.000
00:00:13.900,-0.015,-0.107,-0.267,0.137,98.000
00:00:13.910,-0.030,-0.100,-0.272,0.138,98.000
00:00:13.920,-0.040,-0.093,-0.278,0.140,98.000
00:00:13.930,-0.035,-0.086,-0.283,0.141,98.000
00:00:13.940,-0.045,-0.079,-0.288,0.143,98.000
00:00:13.950,-0.040,-0.072,-0.293,0.144,98.000
00:00:13.960,-0.040,-0.071,-0.293,0.146,98.000
00:00:13.970,-0.045,-0.071,-0.292,0.147,98.000
00:00:13.980,-0.050,-0.071,-0.292,0.149,98.000
00:00:13.990,-0.040,-0.071,-0.291,0.150,98.000
00:00:14.000,-0.050,-0.071,-0.290,0.151,98.000
00:00:14.010,-0.050,-0.077,-0.287,0.153,98.000
00:00:14.020,-0.050,-0.084,-0.283,0.154,98.000
00:00:14.030,-0.055,-0.091,-0.280,0.156,98.000
00:00:14.040,-0.060,-0.097,-0.276,0.157,98.000
00:00:14.050,-0.050,-0.104,-0.273,0.158,98.000
00:00:14.060,-0.065,-0.105,-0.273,0.160,98.000
00:00:14.070,-0.055,-0.106,-0.273,0.161,98.000
00:00:14.080,-0.075,-0.107,-0.273,0.162,98.000
00:00:14.090,-0.055,-0.109,-0.273,0.164,98.000
00:00:14.100,-0.075,-0.110,-0.273,0.165,98.000
00:00:14.110,-0.055,-0.113,-0.272,0.166,98.000
00:00:14.120,-0.075,-0.116,-0.271,0.167,98.000
00:00:14.130,-0.065,-0.119,-0.270,0.168,98.000
00:00:14.140,-0.070,-0.122,-0.268,0.170,98.000
00:00:14.150,-0.075,-0.125,-0.267,0.171,98.000
00:00:14.160,-0.100,-0.121,-0.271,0.172,98.000
00:00:14.170,-0.070,-0.117,-0.274,0.173,98.000
00:00:14.180,-0.045,-0.113,-0.277,0.174,98.000
00:00:14.190,0.010,-0.109,-0.281,0.176,98.000
00:00:14.200,0.050,-0.105,-0.284,0.177,98.000
00:00:14.210,0.065,-0.104,-0.284,0.178,98.000
00:00:14.220,0.170,-0.104,-0.285,0.179,98.000
00:00:14.230,0.155,-0.104,-0.285,0.180,98.000
00:00:14.240,0.085,-0.103,-0.285,0.181,98.000
00:00:14.250,0.035,-0.103,-0.285,0.183,98.000
00:00:14.260,-0.020,-0.102,-0.287,0.183,98.000
00:00:14.270,-0.030,-0.100,-0.288,0.184,98.000
00:00:14.280,-0.160,-0.099,-0.289,0.185,98.000
00:00:14.290,-0.165,-0.098,-0.291,0.186,98.000
00:00:14.300,-0.190,-0.096,-0.292,0.187,98.000
00:00:14.310,-0.165,-0.093,-0.294,0.188,98.000
00:00:14.320,-0.205,-0.089,-0.297,0.189,98.000
00:00:14.330,-0.120,-0.086,-0.299,0.190,98.000
00:00:14.340,0.310,-0.082,-0.301,0.191,98.000
00:00:14.350,1.150,-0.079,-0.303,0.192,98.000
00:00:14.360,1.590,-0.086,-0.299,0.193,98.000
00:00:14.370,0.070,-0.092,-0.295,0.194,98.000
00:00:14.380,-0.685,-0.099,-0.292,0.195,98.000
00:00:14.390,-0.615,-0.106,-0.288,0.195,98.000
00:00:14.400,-0.385,-0.113,-0.284,0.196,98.000
00:00:14.410,-0.160,-0.118,-0.281,0.197,98.000
00:00:14.420,-0.175,-0.122,-0.278,0.198,98.000
00:00:14.430,-0.140,-0.127,-0.276,0.199,98.000
00:00:14.440,-0.150,-0.132,-0.273,0.200,98.000
00:00:14.450,-0.135,-0.137,-0.271,0.201,98.000
00:00:14.460,-0.140,-0.138,-0.270,0.202,98.000
00:00:14.470,-0.120,-0.139,-0.270,0.203,98.000
00:00:14.480,-0.115,-0.140,-0.269,0.203,98.000
00:00:14.490,-0.085,-0.142,-0.269,0.204,98.000
00:00:14.500,-0.080,-0.143,-0.269,0.205,98.000
00:00:14.510,-0.045,-0.133,-0.277,0.206,98.000
00:00:14.520,-0.030,-0.122,-0.285,0.207,98.000
00:00:14.530,0.005,-0.112,-0.293,0.208,98.000
00:00:14.540,0.020,-0.102,-0.301,0.209,98.000
00:00:14.550,0.055,-0.092,-0.309,0.209,98.000
00:00:14.560,0.085,-0.089,-0.313,0.210,98.000
00:00:14.570,0.145,-0.086,-0.317,0.211,98.000
00:00:14.580,0.175,-0.084,-0.321,0.212,98.000
00:00:14.590,0.205,-0.081,-0.326,0.213,98.000
00:00:14.600,0.215,-0.078,-0.330,0.214,98.000
00:00:14.610,0.235,-0.084,-0.327,0.215,98.000
00:00:14.620,0.240,-0.090,-0.325,0.215,98.000
00:00:14.630,0.245,-0.095,-0.322,0.216,98.000
00:00:14.640,0.235,-0.101,-0.319,0.217,98.000
00:00:14.650,0.215,-0.107,-0.317,0.217,98.000
00:00:14.660,0.180,-0.100,-0.319,0.218,98.000
00:00:14.670,0.145,-0.094,-0.321,0.219,98.000
00:00:14.680,0.095,-0.087,-0.324,0.220,98.000
00:00:14.690,0.055,-0.081,-0.326,0.221,98.000
00:00:14.700,0.015,-0.074,-0.329,0.221,98.000
00:00:14.710,0.010,-0.077,-0.328,0.222,98.000
00:00:14.720,-0.015,-0.080,-0.327,0.223,98.000
00:00:14.730,-0.010,-0.083,-0.326,0.223,98.000
00:00:14.740,-0.010,-0.085,-0.325,0.224,98.000
00:00:14.750,-0.010,-0.088,-0.324,0.225,98.000
00:00:14.760,-0.015,-0.091,-0.324,0.226,98.000
00:00:14.770,-0.005,-0.095,-0.324,0.226,98.000
00:00:14.780,0.000,-0.098,-0.323,0.227,98.000
00:00:14.790,0.000,-0.101,-0.323,0.227,98.000
00:00:14.800,-0.005,-0.104,-0.323,0.228,98.000
00:00:14.810,-0.015,-0.100,-0.324,0.229,98.000
00:00:14.820,-0.015,-0.095,-0.325,0.229,98.000
00:00:14.830,-0.020,-0.091,-0.326,0.230,98.000
00:00:14.840,-0.025,-0.086,-0.327,0.230,98.000
00:00:14.850,-0.040,-0.082,-0.328,0.231,98.000
00:00:14.860,-0.055,-0.093,-0.324,0.231,98.000
00:00:14.870,-0.050,-0.104,-0.320,0.232,98.000
00:00:14.880,-0.055,-0.116,-0.316,0.232,98.000
00:00:14.890,-0.050,-0.127,-0.312,0.233,98.000
00:00:14.900,-0.070,-0.138,-0.307,0.233,98.000
00:00:14.910,-0.070,-0.136,-0.310,0.233,98.000
00:00:14.920,-0.070,-0.133,-0.313,0.234,98.000
00:00:14.930,-0.080,-0.131,-0.316,0.234,98.000
00:00:14.940,-0.070,-0.128,-0.319,0.235,98.000
00:00:14.950,-0.075,-0.126,-0.322,0.235,98.000
00:00:14.960,-0.075,-0.120,-0.323,0.235,98.000
00:00:14.970,-0.080,-0.115,-0.324,0.235,98.000
00:00:14.980,-0.075,-0.109,-0.326,0.236,98.000
00:00:14.990,-0.085,-0.104,-0.327,0.236,98.000
00:00:15.000,-0.075,-0.099,-0.328,0.236,98.000
00:00:15.010,-0.075,-0.101,-0.325,0.236,98.000
00:00:15.020,-0.075,-0.103,-0.323,0.237,98.000
00:00:15.030,-0.080,-0.106,-0.321,0.237,98.000
00:00:15.040,-0.085,-0.108,-0.319,0.237,98.000
00:00:15.050,-0.090,-0.111,-0.316,0.238,98.000
00:00:15.060,-0.075,-0.101,-0.319,0.237,98.000
00:00:15.070,-0.080,-0.091,-0.321,0.237,98.000
00:00:15.080,-0.075,-0.081,-0.324,0.237,98.000
00:00:15.090,-0.100,-0.071,-0.326,0.237,98.000
00:00:15.100,-0.095,-0.061,-0.329,0.237,98.000
00:00:15.110,-0.080,-0.062,-0.328,0.236,98.000
00:00:15.120,-0.085,-0.063,-0.327,0.235,98.000
00:00:15.130,-0.075,-0.063,-0.326,0.234,98.000
00:00:15.140,-0.025,-0.064,-0.325,0.233,98.000
00:00:15.150,0.030,-0.064,-0.325,0.232,98.000
00:00:15.160,0.020,-0.063,-0.325,0.231,98.000
00:00:15.170,0.085,-0.062,-0.324,0.230,98.000
00:00:15.180,0.150,-0.061,-0.324,0.229,98.000
00:00:15.190,0.105,-0.060,-0.324,0.227,98.000
00:00:15.200,0.025,-0.059,-0.324,0.226,98.000
00:00:15.210,-0.040,-0.061,-0.323,0.225,98.000
00:00:15.220,-0.035,-0.063,-0.323,0.223,98.000
00:00:15.230,-0.150,-0.064,-0.323,0.222,98.000
00:00:15.240,-0.200,-0.066,-0.323,0.220,98.000
00:00:15.250,-0.210,-0.068,-0.322,0.219,98.000
00:00:15.260,-0.195,-0.070,-0.322,0.217,98.000
00:00:15.270,-0.195,-0.073,-0.322,0.216,98.000
00:00:15.280,-0.225,-0.076,-0.322,0.214,98.000
00:00:15.290,0.095,-0.079,-0.322,0.213,98.000
00:00:15.300,0.835,-0.082,-0.322,0.211,98.000
00:00:15.310,1.390,-0.077,-0.321,0.210,98.000
00:00:15.320,0.585,-0.073,-0.321,0.209,98.000
00:00:15.330,-0.350,-0.068,-0.320,0.208,98.000
00:00:15.340,-0.685,-0.064,-0.320,0.207,98.000
00:00:15.350,-0.505,-0.059,-0.320,0.205,98.000
00:00:15.360,-0.235,-0.060,-0.318,0.205,98.000
00:00:15.370,-0.160,-0.061,-0.317,0.204,98.000
00:00:15.380,-0.150,-0.062,-0.316,0.204,98.000
00:00:15.390,-0.150,-0.063,-0.314,0.203,98.000
00:00:15.400,-0.135,-0.065,-0.313,0.203,98.000
00:00:15.410,-0.140,-0.070,-0.314,0.203,98.000
00:00:15.420,-0.120,-0.074,-0.315,0.203,98.000
00:00:15.430,-0.100,-0.080,-0.316,0.204,98.000
00:00:15.440,-0.075,-0.085,-0.317,0.204,98.000
00:00:15.450,-0.060,-0.090,-0.318,0.204,98.000
00:00:15.460,-0.035,-0.092,-0.320,0.205,98.000
00:00:15.470,-0.015,-0.094,-0.323,0.205,98.000
00:00:15.480,0.010,-0.096,-0.326,0.205,98.000
00:00:15.490,0.035,-0.098,-0.328,0.206,98.000
00:00:15.500,0.070,-0.101,-0.331,0.206,98.000
00:00:15.510,0.100,-0.103,-0.331,0.207,98.000
00:00:15.520,0.140,-0.106,-0.331,0.207,98.000
00:00:15.530,0.170,-0.108,-0.332,0.208,98.000
00:00:15.540,0.210,-0.111,-0.332,0.209,98.000
00:00:15.550,0.230,-0.113,-0.332,0.209,98.000
00:00:15.560,0.250,-0.116,-0.331,0.210,98.000
00:00:15.570,0.260,-0.119,-0.330,0.211,98.000
00:00:15.580,0.260,-0.122,-0.329,0.212,98.000
00:00:15.590,0.260,-0.124,-0.328,0.213,98.000
00:00:15.600,0.235,-0.127,-0.327,0.214,98.000
00:00:15.610,0.200,-0.122,-0.329,0.215,98.000
00:00:15.620,0.155,-0.116,-0.331,0.216,98.000
00:00:15.630,0.115,-0.111,-0.332,0.218,98.000
00:00:15.640,0.070,-0.105,-0.334,0.219,98.000
00:00:15.650,0.035,-0.099,-0.336,0.220,98.000
00:00:15.660,0.010,-0.099,-0.335,0.221,98.000
00:00:15.670,0.010,-0.099,-0.335,0.222,98.000
00:00:15.680,0.000,-0.099,-0.335,0.223,98.000
00:00:15.690,0.000,-0.099,-0.334,0.225,98.000
00:00:15.700,-0.005,-0.099,-0.334,0.226,98.000
00:00:15.710,0.000,-0.099,-0.334,0.227,98.000
00:00:15.720,0.000,-0.099,-0.334,0.227,98.000
00:00:15.730,0.000,-0.099,-0.334,0.228,98.000
00:00:15.740,0.000,-0.099,-0.334,0.229,98.000
00:00:15.750,0.000,-0.099,-0.333,0.230,98.000
00:00:15.760,0.000,-0.097,-0.333,0.231,98.000
00:00:15.770,0.000,-0.096,-0.333,0.232,98.000
00:00:15.780,-0.010,-0.094,-0.332,0.233,98.000
00:00:15.790,-0.010,-0.093,-0.332,0.234,98.000
00:00:15.800,-0.015,-0.092,-0.331,0.235,98.000
00:00:15.810,-0.025,-0.087,-0.332,0.235,98.000
00:00:15.820,-0.030,-0.083,-0.333,0.236,98.000
00:00:15.830,-0.040,-0.079,-0.333,0.237,98.000
00:00:15.840,-0.045,-0.075,-0.334,0.238,98.000
00:00:15.850,-0.055,-0.070,-0.334,0.238,98.000
00:00:15.860,-0.055,-0.073,-0.332,0.239,98.000
00:00:15.870,-0.060,-0.076,-0.331,0.240,98.000
00:00:15.880,-0.060,-0.079,-0.329,0.240,98.000
00:00:15.890,-0.065,-0.082,-0.327,0.241,98.000
00:00:15.900,-0.065,-0.085,-0.325,0.241,98.000
00:00:15.910,-0.065,-0.092,-0.322,0.242,98.000
00:00:15.920,-0.060,-0.098,-0.319,0.242,98.000
00:00:15.930,-0.065,-0.105,-0.316,0.243,98.000
00:00:15.940,-0.065,-0.111,-0.313,0.244,98.000
00:00:15.950,-0.080,-0.118,-0.310,0.244,98.000
00:00:15.960,-0.075,-0.120,-0.305,0.245,98.000
00:00:15.970,-0.080,-0.122,-0.301,0.245,98.000
00:00:15.980,-0.070,-0.124,-0.297,0.246,98.000
00:00:15.990,-0.085,-0.127,-0.292,0.246,98.000
00:00:16.000,-0.070,-0.129,-0.288,0.247,98.000
00:00:16.010,-0.085,-0.137,-0.279,0.247,98.000
00:00:16.020,-0.070,-0.146,-0.271,0.248,98.000
00:00:16.030,-0.085,-0.154,-0.262,0.248,98.000
00:00:16.040,-0.070,-0.163,-0.254,0.249,98.000
00:00:16.050,-0.090,-0.171,-0.245,0.249,98.000
00:00:16.060,-0.080,-0.164,-0.246,0.250,98.000
00:00:16.070,-0.090,-0.158,-0.246,0.250,98.000
00:00:16.080,-0.075,-0.151,-0.246,0.251,98.000
00:00:16.090,-0.095,-0.145,-0.247,0.251,98.000
00:00:16.100,-0.080,-0.138,-0.247,0.251,98.000
00:00:16.110,-0.055,-0.142,-0.244,0.252,98.000
00:00:16.120,0.005,-0.145,-0.240,0.252,98.000
00:00:16.130,0.040,-0.149,-0.237,0.253,98.000
00:00:16.140,0.040,-0.152,-0.233,0.253,98.000
00:00:16.150,0.150,-0.156,-0.230,0.254,98.000
00:00:16.160,0.140,-0.164,-0.226,0.254,98.000
00:00:16.170,0.065,-0.172,-0.222,0.255,98.000
00:00:16.180,0.005,-0.180,-0.218,0.255,98.000
00:00:16.190,-0.045,-0.188,-0.214,0.256,98.000
00:00:16.200,-0.055,-0.196,-0.210,0.256,98.000
00:00:16.210,-0.190,-0.196,-0.212,0.256,98.000
00:00:16.220,-0.190,-0.195,-0.214,0.257,98.000
00:00:16.230,-0.210,-0.195,-0.216,0.257,98.000
00:00:16.240,-0.180,-0.195,-0.219,0.257,98.000
00:00:16.250,-0.205,-0.194,-0.221,0.258,98.000
00:00:16.260,-0.160,-0.192,-0.221,0.258,98.000
00:00:16.270,0.255,-0.189,-0.222,0.259,98.000
00:00:16.280,1.150,-0.187,-0.223,0.259,98.000
00:00:16.290,1.640,-0.184,-0.223,0.259,98.000
00:00:16.300,0.005,-0.182,-0.224,0.260,98.000
00:00:16.310,-0.720,-0.178,-0.221,0.260,98.000
00:00:16.320,-0.590,-0.173,-0.218,0.260,98.000
00:00:16.330,-0.365,-0.169,-0.215,0.261,98.000
00:00:16.340,-0.155,-0.165,-0.212,0.261,98.000
00:00:16.350,-0.180,-0.160,-0.209,0.261,98.000
00:00:16.360,-0.145,-0.165,-0.205,0.262,98.000
00:00:16.370,-0.155,-0.169,-0.202,0.262,98.000
00:00:16.380,-0.125,-0.173,-0.198,0.262,98.000
00:00:16.390,-0.130,-0.178,-0.195,0.262,98.000
00:00:16.400,-0.095,-0.182,-0.191,0.263,98.000
00:00:16.410,-0.095,-0.187,-0.191,0.263,98.000
00:00:16.420,-0.060,-0.192,-0.192,0.263,98.000
00:00:16.430,-0.055,-0.196,-0.192,0.263,98.000
00:00:16.440,-0.015,-0.201,-0.192,0.264,98.000
00:00:16.450,-0.005,-0.205,-0.193,0.264,98.000
00:00:16.460,0.025,-0.203,-0.198,0.264,98.000
00:00:16.470,0.045,-0.201,-0.203,0.264,98.000
00:00:16.480,0.085,-0.199,-0.208,0.264,98.000
00:00:16.490,0.115,-0.197,-0.213,0.264,98.000
00:00:16.500,0.165,-0.195,-0.218,0.265,98.000
00:00:16.510,0.205,-0.185,-0.227,0.265,98.000
00:00:16.520,0.245,-0.175,-0.237,0.265,98.000
00:00:16.530,0.250,-0.165,-0.246,0.265,98.000
00:00:16.540,0.260,-0.155,-0.256,0.265,98.000
00:00:16.550,0.255,-0.145,-0.265,0.265,98.000
00:00:16.560,0.250,-0.150,-0.265,0.265,98.000
00:00:16.570,0.250,-0.156,-0.265,0.265,98.000
00:00:16.580,0.230,-0.161,-0.265,0.265,98.000
00:00:16.590,0.185,-0.166,-0.265,0.265,98.000
00:00:16.600,0.145,-0.171,-0.265,0.266,98.000
00:00:16.610,0.105,-0.174,-0.266,0.266,98.000
00:00:16.620,0.060,-0.177,-0.268,0.266,98.000
00:00:16.630,0.025,-0.181,-0.269,0.266,98.000
00:00:16.640,0.005,-0.184,-0.270,0.266,98.000
00:00:16.650,0.000,-0.187,-0.272,0.266,98.000
00:00:16.660,-0.010,-0.182,-0.277,0.266,98.000
00:00:16.670,0.000,-0.176,-0.283,0.266,98.000
00:00:16.680,0.000,-0.170,-0.288,0.266,98.000
00:00:16.690,0.000,-0.165,-0.294,0.266,98.000
00:00:16.700,0.000,-0.159,-0.300,0.266,98.000
00:00:16.710,0.000,-0.154,-0.304,0.266,98.000
00:00:16.720,0.000,-0.149,-0.309,0.266,98.000
00:00:16.730,0.005,-0.145,-0.314,0.265,98.000
00:00:16.740,0.000,-0.140,-0.318,0.265,98.000
00:00:16.750,-0.005,-0.136,-0.323,0.265,98.000
00:00:16.760,-0.005,-0.133,-0.327,0.265,98.000
00:00:16.770,-0.010,-0.130,-0.331,0.265,98.000
00:00:16.780,-0.015,-0.127,-0.335,0.265,98.000
00:00:16.790,-0.020,-0.124,-0.339,0.265,98.000
00:00:16.800,-0.025,-0.121,-0.343,0.265,98.000
00:00:16.810,-0.035,-0.119,-0.343,0.265,98.000
00:00:16.820,-0.045,-0.117,-0.344,0.265,98.000
00:00:16.830,-0.035,-0.115,-0.344,0.265,98.000
00:00:16.840,-0.050,-0.113,-0.345,0.265,98.000
00:00:16.850,-0.050,-0.111,-0.346,0.265,98.000
00:00:16.860,-0.055,-0.106,-0.347,0.265,98.000
00:00:16.870,-0.055,-0.101,-0.348,0.265,98.000
00:00:16.880,-0.060,-0.096,-0.349,0.265,98.000
00:00:16.890,-0.055,-0.091,-0.351,0.265,98.000
00:00:16.900,-0.060,-0.086,-0.352,0.265,98.000
00:00:16.910,-0.065,-0.088,-0.351,0.265,98.000
00:00:16.920,-0.065,-0.090,-0.351,0.265,98.000
00:00:16.930,-0.060,-0.093,-0.350,0.265,98.000
00:00:16.940,-0.060,-0.095,-0.349,0.264,98.000
00:00:16.950,-0.050,-0.098,-0.348,0.264,98.000
00:00:16.960,-0.070,-0.097,-0.348,0.263,98.000
00:00:16.970,-0.060,-0.096,-0.348,0.262,98.000
00:00:16.980,-0.065,-0.095,-0.348,0.261,98.000
00:00:16.990,-0.055,-0.094,-0.348,0.260,98.000
00:00:17.000,-0.070,-0.093,-0.347,0.259,98.000
00:00:17.010,-0.060,-0.091,-0.347,0.257,98.000
00:00:17.020,-0.080,-0.088,-0.347,0.255,98.000
00:00:17.030,-0.065,-0.086,-0.347,0.253,98.000
00:00:17.040,-0.080,-0.083,-0.347,0.252,98.000
00:00:17.050,-0.080,-0.081,-0.346,0.250,98.000
00:00:17.060,-0.085,-0.085,-0.346,0.248,98.000
00:00:17.070,-0.075,-0.090,-0.345,0.246,98.000
00:00:17.080,-0.085,-0.095,-0.344,0.244,98.000
00:00:17.090,-0.075,-0.099,-0.344,0.242,98.000
00:00:17.100,-0.090,-0.104,-0.343,0.240,98.000
00:00:17.110,-0.080,-0.104,-0.342,0.238,98.000
00:00:17.120,-0.045,-0.104,-0.342,0.236,98.000
00:00:17.130,0.000,-0.104,-0.341,0.234,98.000
00:00:17.140,0.040,-0.104,-0.340,0.232,98.000
00:00:17.150,0.070,-0.104,-0.340,0.230,98.000
00:00:17.160,0.180,-0.096,-0.340,0.228,98.000
00:00:17.170,0.145,-0.089,-0.340,0.226,98.000
00:00:17.180,0.050,-0.081,-0.340,0.224,98.000
00:00:17.190,0.000,-0.074,-0.340,0.222,98.000
00:00:17.200,-0.035,-0.066,-0.340,0.220,98.000
00:00:17.210,-0.085,-0.064,-0.340,0.218,98.000
00:00:17.220,-0.185,-0.061,-0.340,0.216,98.000
00:00:17.230,-0.185,-0.059,-0.340,0.214,98.000
00:00:17.240,-0.190,-0.056,-0.340,0.212,98.000
00:00:17.250,-0.170,-0.054,-0.340,0.211,98.000
00:00:17.260,-0.225,-0.056,-0.341,0.209,98.000
00:00:17.270,-0.025,-0.059,-0.341,0.208,98.000
00:00:17.280,0.500,-0.062,-0.342,0.206,98.000
00:00:17.290,1.130,-0.064,-0.343,0.204,98.000
00:00:17.300,1.185,-0.067,-0.343,0.203,98.000
00:00:17.310,-0.070,-0.068,-0.342,0.201,98.000
00:00:17.320,-0.700,-0.070,-0.342,0.200,98.000
00:00:17.330,-0.620,-0.071,-0.341,0.198,98.000
00:00:17.340,-0.355,-0.072,-0.340,0.196,98.000
00:00:17.350,-0.150,-0.074,-0.339,0.195,98.000
00:00:17.360,-0.160,-0.081,-0.337,0.193,98.000
00:00:17.370,-0.140,-0.088,-0.334,0.191,98.000
00:00:17.380,-0.145,-0.095,-0.331,0.190,98.000
00:00:17.390,-0.120,-0.103,-0.328,0.188,98.000
00:00:17.400,-0.115,-0.110,-0.326,0.187,98.000
00:00:17.410,-0.095,-0.107,-0.328,0.186,98.000
00:00:17.420,-0.085,-0.105,-0.330,0.185,98.000
00:00:17.430,-0.075,-0.102,-0.332,0.183,98.000
00:00:17.440,-0.065,-0.099,-0.334,0.182,98.000
00:00:17.450,-0.030,-0.097,-0.336,0.181,98.000
00:00:17.460,-0.015,-0.088,-0.339,0.180,98.000
00:00:17.470,0.010,-0.079,-0.342,0.179,98.000
00:00:17.480,0.030,-0.070,-0.344,0.178,98.000
00:00:17.490,0.080,-0.061,-0.347,0.177,98.000
00:00:17.500,0.100,-0.052,-0.350,0.176,98.000
00:00:17.510,0.140,-0.059,-0.348,0.175,98.000
00:00:17.520,0.170,-0.066,-0.347,0.174,98.000
00:00:17.530,0.215,-0.073,-0.346,0.173,98.000
00:00:17.540,0.230,-0.080,-0.345,0.172,98.000
00:00:17.550,0.245,-0.086,-0.344,0.171,98.000
00:00:17.560,0.245,-0.085,-0.343,0.170,98.000
00:00:17.570,0.260,-0.084,-0.342,0.169,98.000
00:00:17.580,0.240,-0.082,-0.341,0.168,98.000
00:00:17.590,0.225,-0.081,-0.340,0.167,98.000
00:00:17.600,0.180,-0.080,-0.339,0.167,98.000
00:00:17.610,0.160,-0.075,-0.339,0.166,98.000
00:00:17.620,0.115,-0.070,-0.339,0.165,98.000
00:00:17.630,0.065,-0.065,-0.339,0.164,98.000
00:00:17.640,0.045,-0.060,-0.339,0.163,98.000
00:00:17.650,0.045,-0.056,-0.339,0.162,98.000
00:00:17.660,0.015,-0.060,-0.338,0.161,98.000
00:00:17.670,0.000,-0.065,-0.338,0.160,98.000
00:00:17.680,0.005,-0.069,-0.337,0.160,98.000
00:00:17.690,0.005,-0.074,-0.336,0.159,98.000
00:00:17.700,0.010,-0.078,-0.335,0.158,98.000
00:00:17.710,0.000,-0.081,-0.334,0.157,98.000
00:00:17.720,0.000,-0.083,-0.332,0.156,98.000
00:00:17.730,-0.005,-0.085,-0.330,0.155,98.000
00:00:17.740,-0.005,-0.088,-0.329,0.154,98.000
00:00:17.750,-0.010,-0.090,-0.327,0.153,98.000
00:00:17.760,-0.020,-0.087,-0.327,0.152,98.000
00:00:17.770,-0.030,-0.085,-0.327,0.151,98.000
00:00:17.780,-0.030,-0.082,-0.328,0.150,98.000
00:00:17.790,-0.025,-0.080,-0.328,0.149,98.000
00:00:17.800,-0.040,-0.077,-0.328,0.148,98.000
00:00:17.810,-0.030,-0.073,-0.328,0.147,98.000
00:00:17.820,-0.060,-0.069,-0.328,0.146,98.000
00:00:17.830,-0.050,-0.065,-0.328,0.145,98.000
00:00:17.840,-0.045,-0.061,-0.327,0.144,98.000
00:00:17.850,-0.045,-0.058,-0.327,0.143,98.000
00:00:17.860,-0.055,-0.056,-0.327,0.142,98.000
00:00:17.870,-0.060,-0.054,-0.326,0.141,98.000
00:00:17.880,-0.055,-0.053,-0.325,0.140,98.000
00:00:17.890,-0.065,-0.051,-0.324,0.139,98.000
00:00:17.900,-0.065,-0.050,-0.323,0.138,98.000
00:00:17.910,-0.060,-0.053,-0.322,0.136,98.000
00:00:17.920,-0.055,-0.056,-0.321,0.135,98.000
00:00:17.930,-0.060,-0.059,-0.320,0.134,98.000
00:00:17.940,-0.070,-0.062,-0.319,0.133,98.000
00:00:17.950,-0.055,-0.065,-0.318,0.132,98.000
00:00:17.960,-0.075,-0.067,-0.316,0.130,98.000
00:00:17.970,-0.060,-0.069,-0.315,0.129,98.000
00:00:17.980,-0.075,-0.071,-0.313,0.128,98.000
00:00:17.990,-0.075,-0.072,-0.312,0.126,98.000
00:00:18.000,-0.080,-0.074,-0.310,0.125,98.000
00:00:18.010,-0.080,-0.073,-0.308,0.124,98.000
00:00:18.020,-0.090,-0.072,-0.307,0.122,98.000
00:00:18.030,-0.080,-0.070,-0.305,0.120,98.000
00:00:18.040,-0.090,-0.069,-0.303,0.119,98.000
00:00:18.050,-0.070,-0.068,-0.302,0.117,98.000
00:00:18.060,-0.070,-0.071,-0.300,0.116,98.000
00:00:18.070,-0.020,-0.073,-0.298,0.114,98.000
00:00:18.080,0.025,-0.076,-0.297,0.112,98.000
00:00:18.090,0.045,-0.079,-0.295,0.110,98.000
00:00:18.100,0.100,-0.081,-0.294,0.108,98.000
00:00:18.110,0.185,-0.078,-0.294,0.106,98.000
00:00:18.120,0.130,-0.074,-0.294,0.104,98.000
00:00:18.130,0.040,-0.071,-0.294,0.102,98.000
00:00:18.140,-0.030,-0.067,-0.294,0.100,98.000
00:00:18.150,-0.020,-0.064,-0.294,0.098,98.000
00:00:18.160,-0.130,-0.063,-0.292,0.096,98.000
00:00:18.170,-0.155,-0.062,-0.291,0.094,98.000
00:00:18.180,-0.170,-0.061,-0.289,0.092,98.000
00:00:18.190,-0.165,-0.060,-0.288,0.090,98.000
00:00:18.200,-0.180,-0.060,-0.286,0.088,98.000
00:00:18.210,-0.200,-0.066,-0.284,0.086,98.000
00:00:18.220,0.145,-0.073,-0.282,0.083,98.000
00:00:18.230,0.845,-0.079,-0.280,0.081,98.000
00:00:18.240,1.350,-0.086,-0.278,0.079,98.000
00:00:18.250,0.575,-0.092,-0.276,0.077,98.000
00:00:18.260,-0.295,-0.093,-0.275,0.074,98.000
00:00:18.270,-0.665,-0.093,-0.273,0.072,98.000
00:00:18.280,-0.545,-0.093,-0.272,0.070,98.000
00:00:18.290,-0.275,-0.094,-0.270,0.068,98.000
00:00:18.300,-0.160,-0.094,-0.268,0.066,98.000
00:00:18.310,-0.150,-0.085,-0.269,0.064,98.000
00:00:18.320,-0.145,-0.076,-0.269,0.062,98.000
00:00:18.330,-0.135,-0.067,-0.270,0.060,98.000
00:00:18.340,-0.140,-0.058,-0.271,0.058,98.000
00:00:18.350,-0.125,-0.048,-0.271,0.057,98.000
00:00:18.360,-0.105,-0.044,-0.274,0.055,98.000
00:00:18.370,-0.085,-0.040,-0.276,0.053,98.000
00:00:18.380,-0.070,-0.035,-0.278,0.051,98.000
00:00:18.390,-0.055,-0.031,-0.280,0.050,98.000
00:00:18.400,-0.040,-0.026,-0.283,0.048,98.000
00:00:18.410,0.000,-0.032,-0.282,0.047,98.000
00:00:18.420,0.020,-0.038,-0.282,0.045,98.000
00:00:18.430,0.065,-0.043,-0.282,0.044,98.000
00:00:18.440,0.065,-0.049,-0.282,0.042,98.000
00:00:18.450,0.105,-0.054,-0.281,0.041,98.000
00:00:18.460,0.140,-0.055,-0.279,0.039,98.000
00:00:18.470,0.190,-0.055,-0.277,0.038,98.000
00:00:18.480,0.195,-0.056,-0.275,0.036,98.000
00:00:18.490,0.225,-0.056,-0.273,0.035,98.000
00:00:18.500,0.220,-0.057,-0.271,0.033,98.000
00:00:18.510,0.220,-0.058,-0.269,0.032,98.000
00:00:18.520,0.230,-0.059,-0.266,0.030,98.000
00:00:18.530,0.215,-0.060,-0.263,0.029,98.000
00:00:18.540,0.175,-0.061,-0.260,0.028,98.000
00:00:18.550,0.135,-0.062,-0.257,0.026,98.000
00:00:18.560,0.090,-0.058,-0.256,0.025,98.000
00:00:18.570,0.050,-0.055,-0.256,0.023,98.000
00:00:18.580,0.025,-0.051,-0.256,0.022,98.000
00:00:18.590,0.010,-0.048,-0.255,0.020,98.000
00:00:18.600,-0.005,-0.044,-0.255,0.019,98.000
00:00:18.610,-0.015,-0.045,-0.252,0.017,98.000
00:00:18.620,-0.010,-0.045,-0.248,0.015,98.000
00:00:18.630,0.000,-0.046,-0.245,0.014,98.000
00:00:18.640,0.000,-0.046,-0.242,0.012,98.000
00:00:18.650,0.000,-0.047,-0.239,0.010,98.000
00:00:18.660,0.000,-0.058,-0.230,0.009,98.000
00:00:18.670,0.000,-0.069,-0.221,0.007,98.000
00:00:18.680,0.000,-0.080,-0.212,0.005,98.000
00:00:18.690,-0.005,-0.091,-0.203,0.003,98.000
00:00:18.700,0.000,-0.103,-0.193,0.002,98.000
00:00:18.710,-0.025,-0.098,-0.194,-0.000,98.000
00:00:18.720,-0.025,-0.094,-0.195,-0.002,98.000
00:00:18.730,-0.025,-0.089,-0.196,-0.004,98.000
00:00:18.740,-0.025,-0.085,-0.197,-0.006,98.000
00:00:18.750,-0.030,-0.081,-0.199,-0.008,98.000
00:00:18.760,-0.050,-0.070,-0.202,-0.010,98.000
00:00:18.770,-0.035,-0.060,-0.205,-0.012,98.000
00:00:18.780,-0.050,-0.050,-0.209,-0.014,98.000
00:00:18.790,-0.045,-0.040,-0.212,-0.016,98.000
00:00:18.800,-0.055,-0.030,-0.216,-0.019,98.000
00:00:18.810,-0.050,-0.035,-0.208,-0.021,98.000
00:00:18.820,-0.055,-0.041,-0.201,-0.023,98.000
00:00:18.830,-0.055,-0.046,-0.194,-0.025,98.000
00:00:18.840,-0.080,-0.052,-0.186,-0.028,98.000
00:00:18.850,-0.050,-0.057,-0.179,-0.030,98.000
00:00:18.860,-0.065,-0.059,-0.175,-0.032,98.000
00:00:18.870,-0.050,-0.060,-0.171,-0.035,98.000
00:00:18.880,-0.080,-0.061,-0.166,-0.037,98.000
00:00:18.890,-0.075,-0.062,-0.162,-0.040,98.000
00:00:18.900,-0.075,-0.063,-0.158,-0.042,98.000
00:00:18.910,-0.075,-0.063,-0.155,-0.045,98.000
00:00:18.920,-0.085,-0.063,-0.152,-0.047,98.000
00:00:18.930,-0.060,-0.063,-0.149,-0.050,98.000
00:00:18.940,-0.080,-0.063,-0.146,-0.052,98.000
00:00:18.950,-0.085,-0.063,-0.143,-0.055,98.000
00:00:18.960,-0.075,-0.069,-0.139,-0.058,97.000
00:00:18.970,-0.020,-0.075,-0.134,-0.060,97.000
00:00:18.980,0.020,-0.082,-0.129,-0.063,97.000
00:00:18.990,0.045,-0.088,-0.125,-0.066,97.000
00:00:19.000,0.125,-0.094,-0.120,-0.068,97.000
00:00:19.010,0.165,-0.088,-0.117,-0.071,97.000
00:00:19.020,0.115,-0.082,-0.114,-0.073,97.000
00:00:19.030,0.020,-0.076,-0.111,-0.076,97.000
00:00:19.040,-0.045,-0.071,-0.108,-0.079,97.000
00:00:19.050,-0.040,-0.065,-0.105,-0.081,97.000
00:00:19.060,-0.165,-0.060,-0.102,-0.084,97.000
00:00:19.070,-0.185,-0.055,-0.099,-0.087,97.000
00:00:19.080,-0.210,-0.050,-0.096,-0.089,97.000
00:00:19.090,-0.180,-0.045,-0.093,-0.092,97.000
00:00:19.100,-0.205,-0.040,-0.090,-0.095,97.000
00:00:19.110,-0.210,-0.038,-0.087,-0.098,97.000
00:00:19.120,0.160,-0.035,-0.085,-0.100,97.000
00:00:19.130,0.950,-0.033,-0.082,-0.103,97.000
00:00:19.140,1.475,-0.031,-0.080,-0.106,97.000
00:00:19.150,0.375,-0.028,-0.077,-0.108,97.000
00:00:19.160,-0.450,-0.029,-0.074,-0.111,97.000
00:00:19.170,-0.700,-0.030,-0.071,-0.114,97.000
00:00:19.180,-0.525,-0.031,-0.068,-0.116,97.000
00:00:19.190,-0.250,-0.032,-0.065,-0.119,97.000
00:00:19.200,-0.170,-0.033,-0.062,-0.122,97.000
00:00:19.210,-0.165,-0.032,-0.059,-0.124,97.000
00:00:19.220,-0.165,-0.031,-0.056,-0.127,97.000
00:00:19.230,-0.135,-0.030,-0.053,-0.129,97.000
00:00:19.240,-0.135,-0.029,-0.050,-0.132,97.000
00:00:19.250,-0.110,-0.028,-0.047,-0.134,97.000
00:00:19.260,-0.115,-0.033,-0.050,-0.136,97.000
00:00:19.270,-0.085,-0.038,-0.053,-0.139,97.000
00:00:19.280,-0.080,-0.042,-0.056,-0.141,97.000
00:00:19.290,-0.045,-0.047,-0.059,-0.144,97.000
00:00:19.300,-0.035,-0.052,-0.062,-0.146,97.000
00:00:19.310,0.010,-0.058,-0.064,-0.149,97.000
00:00:19.320,0.020,-0.065,-0.066,-0.151,97.000
00:00:19.330,0.040,-0.071,-0.067,-0.154,97.000
00:00:19.340,0.090,-0.078,-0.069,-0.156,97.000
00:00:19.350,0.130,-0.084,-0.071,-0.159,97.000
00:00:19.360,0.170,-0.071,-0.062,-0.161,97.000
00:00:19.370,0.205,-0.058,-0.053,-0.164,97.000
00:00:19.380,0.210,-0.044,-0.044,-0.166,97.000
00:00:19.390,0.250,-0.031,-0.034,-0.169,97.000
00:00:19.400,0.235,-0.018,-0.025,-0.171,97.000
00:00:19.410,0.250,-0.017,-0.023,-0.173,97.000
00:00:19.420,0.225,-0.016,-0.021,-0.176,97.000
00:00:19.430,0.225,-0.015,-0.019,-0.178,97.000
00:00:19.440,0.170,-0.014,-0.017,-0.181,97.000
00:00:19.450,0.125,-0.013,-0.015,-0.184,97.000
00:00:19.460,0.100,-0.015,-0.016,-0.186,97.000
00:00:19.470,0.035,-0.018,-0.017,-0.189,97.000
00:00:19.480,0.010,-0.021,-0.017,-0.191,97.000
00:00:19.490,-0.015,-0.024,-0.018,-0.194,97.000
00:00:19.500,-0.020,-0.026,-0.019,-0.196,97.000
00:00:19.510,-0.035,-0.029,-0.019,-0.199,97.000
00:00:19.520,-0.025,-0.031,-0.020,-0.201,97.000
00:00:19.530,-0.030,-0.033,-0.021,-0.203,97.000
00:00:19.540,-0.030,-0.035,-0.021,-0.206,97.000
00:00:19.550,-0.030,-0.037,-0.022,-0.208,97.000
00:00:19.560,-0.035,-0.044,-0.025,-0.210,97.000
00:00:19.570,-0.045,-0.051,-0.028,-0.213,97.000
00:00:19.580,-0.040,-0.058,-0.031,-0.215,97.000
00:00:19.590,-0.035,-0.065,-0.034,-0.217,97.000
00:00:19.600,-0.040,-0.072,-0.037,-0.220,97.000
00:00:19.610,-0.055,-0.063,-0.031,-0.222,97.000
00:00:19.620,-0.050,-0.055,-0.025,-0.225,97.000
00:00:19.630,-0.040,-0.046,-0.020,-0.227,97.000
00:00:19.640,-0.070,-0.038,-0.014,-0.229,97.000
00:00:19.650,-0.060,-0.029,-0.009,-0.232,97.000
00:00:19.660,-0.065,-0.031,-0.009,-0.234,97.000
00:00:19.670,-0.060,-0.033,-0.009,-0.236,97.000
00:00:19.680,-0.095,-0.036,-0.009,-0.238,97.000
00:00:19.690,-0.095,-0.038,-0.010,-0.240,97.000
00:00:19.700,-0.100,-0.040,-0.010,-0.242,97.000
00:00:19.710,-0.065,-0.047,-0.012,-0.245,97.000
00:00:19.720,-0.095,-0.053,-0.015,-0.247,97.000
00:00:19.730,-0.115,-0.060,-0.017,-0.249,97.000
00:00:19.740,-0.090,-0.067,-0.019,-0.251,97.000
00:00:19.750,-0.085,-0.074,-0.022,-0.253,97.000
00:00:19.760,-0.120,-0.064,-0.015,-0.255,97.000
00:00:19.770,-0.080,-0.055,-0.009,-0.257,97.000
00:00:19.780,-0.125,-0.046,-0.003,-0.259,97.000
00:00:19.790,-0.115,-0.036,0.003,-0.261,97.000
00:00:19.800,-0.105,-0.027,0.009,-0.263,97.000
00:00:19.810,-0.085,-0.029,0.010,-0.265,97.000
00:00:19.820,-0.065,-0.032,0.011,-0.266,97.000
00:00:19.830,0.010,-0.034,0.013,-0.268,97.000
00:00:19.840,0.040,-0.037,0.014,-0.270,97.000
00:00:19.850,0.060,-0.039,0.015,-0.272,97.000
00:00:19.860,0.195,-0.044,0.015,-0.273,97.000
00:00:19.870,0.155,-0.049,0.014,-0.275,97.000
00:00:19.880,0.075,-0.053,0.014,-0.277,97.000
00:00:19.890,0.000,-0.058,0.014,-0.279,97.000
00:00:19.900,-0.035,-0.063,0.014,-0.281,97.000
00:00:19.910,-0.090,-0.062,0.016,-0.283,97.000
00:00:19.920,-0.185,-0.061,0.018,-0.285,97.000
00:00:19.930,-0.180,-0.060,0.020,-0.287,97.000
00:00:19.940,-0.190,-0.059,0.022,-0.288,97.000
00:00:19.950,-0.170,-0.058,0.024,-0.290,97.000
00:00:19.960,-0.235,-0.054,0.025,-0.292,97.000
00:00:19.970,-0.080,-0.050,0.026,-0.293,97.000
00:00:19.980,0.445,-0.046,0.028,-0.295,97.000
00:00:19.990,1.180,-0.042,0.029,-0.297,97.000
00:00:20.000,1.415,-0.039,0.030,-0.298,97.000
00:00:20.010,0.040,-0.031,0.033,-0.300,97.000
00:00:20.020,-0.710,-0.023,0.036,-0.301,97.000
00:00:20.030,-0.675,-0.015,0.039,-0.303,97.000
00:00:20.040,-0.410,-0.007,0.042,-0.304,97.000
00:00:20.050,-0.165,0.001,0.045,-0.306,97.000
00:00:20.060,-0.175,-0.001,0.044,-0.307,97.000
00:00:20.070,-0.140,-0.004,0.044,-0.308,97.000
00:00:20.080,-0.130,-0.006,0.043,-0.309,97.000
00:00:20.090,-0.110,-0.009,0.042,-0.310,97.000
00:00:20.100,-0.120,-0.011,0.041,-0.311,97.000
00:00:20.110,-0.100,-0.012,0.040,-0.312,97.000
00:00:20.120,-0.085,-0.013,0.038,-0.313,97.000
00:00:20.130,-0.055,-0.014,0.037,-0.314,97.000
00:00:20.140,-0.045,-0.015,0.035,-0.315,97.000
00:00:20.150,-0.015,-0.016,0.034,-0.316,97.000
00:00:20.160,-0.005,-0.010,0.037,-0.316,97.000
00:00:20.170,0.025,-0.003,0.040,-0.317,97.000
00:00:20.180,0.055,0.003,0.043,-0.318,97.000
00:00:20.190,0.100,0.009,0.045,-0.318,97.000
00:00:20.200,0.130,0.016,0.048,-0.319,97.000
00:00:20.210,0.175,0.014,0.047,-0.319,97.000
00:00:20.220,0.185,0.012,0.046,-0.319,97.000
00:00:20.230,0.235,0.010,0.046,-0.319,97.000
00:00:20.240,0.250,0.009,0.045,-0.319,97.000
00:00:20.250,0.265,0.007,0.044,-0.319,97.000
00:00:20.260,0.265,0.006,0.043,-0.319,97.000
00:00:20.270,0.270,0.005,0.043,-0.319,97.000
00:00:20.280,0.255,0.004,0.042,-0.318,97.000
00:00:20.290,0.215,0.003,0.041,-0.318,97.000
00:00:20.300,0.170,0.002,0.041,-0.317,97.000
00:00:20.310,0.110,0.003,0.040,-0.316,97.000
00:00:20.320,0.060,0.003,0.039,-0.315,97.000
00:00:20.330,0.040,0.004,0.038,-0.314,97.000
00:00:20.340,0.000,0.004,0.037,-0.313,97.000
00:00:20.350,-0.010,0.004,0.037,-0.311,97.000
00:00:20.360,-0.025,-0.000,0.033,-0.309,97.000
00:00:20.370,-0.020,-0.004,0.030,-0.306,97.000
00:00:20.380,-0.030,-0.009,0.026,-0.304,97.000
00:00:20.390,-0.040,-0.013,0.023,-0.301,97.000
00:00:20.400,-0.040,-0.018,0.020,-0.299,97.000
00:00:20.410,-0.030,-0.012,0.022,-0.296,97.000
00:00:20.420,-0.020,-0.007,0.025,-0.293,97.000
00:00:20.430,-0.030,-0.002,0.027,-0.290,97.000
00:00:20.440,-0.035,0.003,0.029,-0.286,97.000
00:00:20.450,-0.035,0.008,0.032,-0.283,97.000
00:00:20.460,-0.040,0.002,0.027,-0.280,97.000
00:00:20.470,-0.055,-0.004,0.022,-0.277,97.000
00:00:20.480,-0.045,-0.011,0.017,-0.273,97.000
00:00:20.490,-0.065,-0.017,0.012,-0.270,97.000
00:00:20.500,-0.065,-0.024,0.007,-0.267,97.000
00:00:20.510,-0.075,-0.031,0.002,-0.263,97.000
00:00:20.520,-0.070,-0.038,-0.003,-0.260,97.000
00:00:20.530,-0.080,-0.046,-0.008,-0.256,97.000
00:00:20.540,-0.080,-0.053,-0.013,-0.253,97.000
00:00:20.550,-0.090,-0.060,-0.018,-0.249,97.000
00:00:20.560,-0.080,-0.054,-0.015,-0.246,97.000
00:00:20.570,-0.090,-0.047,-0.011,-0.242,97.000
00:00:20.580,-0.095,-0.040,-0.008,-0.239,97.000
00:00:20.590,-0.100,-0.034,-0.004,-0.235,97.000
00:00:20.600,-0.095,-0.027,-0.001,-0.232,97.000
00:00:20.610,-0.100,-0.031,-0.003,-0.229,97.000
00:00:20.620,-0.100,-0.034,-0.005,-0.225,97.000
00:00:20.630,-0.110,-0.038,-0.008,-0.222,97.000
00:00:20.640,-0.105,-0.041,-0.010,-0.218,97.000
00:00:20.650,-0.110,-0.045,-0.013,-0.215,97.000
00:00:20.660,-0.105,-0.049,-0.015,-0.212,97.000
00:00:20.670,-0.090,-0.053,-0.018,-0.208,97.000
00:00:20.680,-0.025,-0.057,-0.021,-0.205,97.000
00:00:20.690,0.030,-0.062,-0.023,-0.202,97.000
00:00:20.700,0.015,-0.066,-0.026,-0.198,97.000
00:00:20.710,0.095,-0.071,-0.028,-0.195,97.000
00:00:20.720,0.130,-0.076,-0.031,-0.191,97.000
00:00:20.730,0.085,-0.081,-0.033,-0.188,97.000
00:00:20.740,0.005,-0.087,-0.036,-0.185,97.000
00:00:20.750,-0.050,-0.092,-0.039,-0.181,97.000
00:00:20.760,-0.060,-0.101,-0.041,-0.178,97.000
00:00:20.770,-0.175,-0.111,-0.044,-0.175,97.000
00:00:20.780,-0.210,-0.120,-0.047,-0.171,97.000
00:00:20.790,-0.210,-0.130,-0.050,-0.168,97.000
00:00:20.800,-0.205,-0.139,-0.053,-0.164,97.000
00:00:20.810,-0.210,-0.138,-0.053,-0.161,97.000
00:00:20.820,-0.245,-0.136,-0.053,-0.158,97.000
00:00:20.830,0.065,-0.135,-0.053,-0.155,97.000
00:00:20.840,0.890,-0.134,-0.053,-0.152,97.000
00:00:20.850,1.575,-0.132,-0.053,-0.149,97.000
00:00:20.860,0.785,-0.133,-0.053,-0.146,97.000
00:00:20.870,-0.380,-0.133,-0.052,-0.143,97.000
00:00:20.880,-0.715,-0.134,-0.052,-0.140,97.000
00:00:20.890,-0.475,-0.134,-0.052,-0.137,97.000
00:00:20.900,-0.225,-0.135,-0.052,-0.134,97.000
00:00:20.910,-0.180,-0.146,-0.050,-0.131,97.000
00:00:20.920,-0.175,-0.158,-0.048,-0.129,97.000
00:00:20.930,-0.165,-0.170,-0.046,-0.126,97.000
00:00:20.940,-0.155,-0.182,-0.044,-0.123,97.000
00:00:20.950,-0.145,-0.193,-0.043,-0.120,97.000
00:00:20.960,-0.125,-0.196,-0.042,-0.118,97.000
00:00:20.970,-0.115,-0.198,-0.042,-0.115,97.000
00:00:20.980,-0.090,-0.201,-0.041,-0.113,97.000
00:00:20.990,-0.075,-0.203,-0.041,-0.110,97.000
00:00:21.000,-0.045,-0.206,-0.041,-0.107,97.000
00:00:21.010,-0.020,-0.204,-0.042,-0.105,97.000
00:00:21.020,0.000,-0.202,-0.044,-0.103,97.000
00:00:21.030,0.035,-0.200,-0.046,-0.100,97.000
00:00:21.040,0.070,-0.198,-0.048,-0.098,97.000
00:00:21.050,0.110,-0.196,-0.050,-0.095,97.000
00:00:21.060,0.150,-0.197,-0.051,-0.093,97.000
00:00:21.070,0.190,-0.198,-0.053,-0.090,97.000
00:00:21.080,0.230,-0.199,-0.055,-0.088,97.000
00:00:21.090,0.260,-0.200,-0.057,-0.085,97.000
00:00:21.100,0.270,-0.200,-0.059,-0.083,97.000
00:00:21.110,0.275,-0.201,-0.060,-0.081,97.000
00:00:21.120,0.280,-0.202,-0.060,-0.078,97.000
00:00:21.130,0.270,-0.202,-0.061,-0.076,97.000
00:00:21.140,0.240,-0.203,-0.061,-0.073,97.000
00:00:21.150,0.195,-0.203,-0.062,-0.071,97.000
00:00:21.160,0.145,-0.206,-0.061,-0.068,97.000
00:00:21.170,0.095,-0.209,-0.060,-0.066,97.000
00:00:21.180,0.055,-0.212,-0.060,-0.064,97.000
00:00:21.190,0.025,-0.215,-0.059,-0.061,97.000
00:00:21.200,0.000,-0.218,-0.058,-0.059,97.000
00:00:21.210,-0.005,-0.221,-0.058,-0.057,97.000
00:00:21.220,-0.010,-0.223,-0.057,-0.054,97.000
00:00:21.230,-0.010,-0.225,-0.057,-0.052,97.000
00:00:21.240,-0.005,-0.227,-0.056,-0.050,97.000
00:00:21.250,-0.005,-0.230,-0.056,-0.048,97.000
00:00:21.260,-0.005,-0.231,-0.055,-0.046,97.000
00:00:21.270,0.000,-0.232,-0.055,-0.043,97.000
00:00:21.280,0.000,-0.234,-0.054,-0.041,97.000
00:00:21.290,0.000,-0.235,-0.053,-0.039,97.000
00:00:21.300,0.000,-0.236,-0.053,-0.037,97.000
00:00:21.310,-0.010,-0.233,-0.054,-0.035,97.000
00:00:21.320,-0.015,-0.230,-0.054,-0.033,97.000
00:00:21.330,-0.020,-0.226,-0.055,-0.031,97.000
00:00:21.340,-0.025,-0.223,-0.056,-0.029,97.000
00:00:21.350,-0.035,-0.219,-0.056,-0.027,97.000
00:00:21.360,-0.040,-0.217,-0.057,-0.025,97.000
00:00:21.370,-0.050,-0.215,-0.059,-0.023,97.000
00:00:21.380,-0.055,-0.213,-0.060,-0.021,97.000
00:00:21.390,-0.060,-0.211,-0.061,-0.020,97.000
00:00:21.400,-0.065,-0.210,-0.062,-0.018,97.000
00:00:21.410,-0.065,-0.218,-0.062,-0.016,97.000
00:00:21.420,-0.065,-0.227,-0.061,-0.014,97.000
00:00:21.430,-0.065,-0.235,-0.061,-0.012,97.000
00:00:21.440,-0.075,-0.244,-0.061,-0.010,97.000
00:00:21.450,-0.065,-0.253,-0.061,-0.009,97.000
00:00:21.460,-0.075,-0.258,-0.060,-0.007,97.000
00:00:21.470,-0.075,-0.263,-0.060,-0.005,97.000
00:00:21.480,-0.075,-0.269,-0.059,-0.003,97.000
00:00:21.490,-0.075,-0.274,-0.059,-0.002,97.000
00:00:21.500,-0.080,-0.279,-0.059,-0.000,97.000
00:00:21.510,-0.075,-0.276,-0.059,0.002,97.000
00:00:21.520,-0.085,-0.273,-0.059,0.003,97.000
00:00:21.530,-0.070,-0.269,-0.059,0.005,97.000
00:00:21.540,-0.080,-0.266,-0.059,0.006,97.000
00:00:21.550,-0.070,-0.263,-0.059,0.008,97.000
00:00:21.560,-0.080,-0.265,-0.058,0.010,97.000
00:00:21.570,-0.080,-0.266,-0.058,0.012,97.000
00:00:21.580,-0.090,-0.268,-0.057,0.013,97.000
00:00:21.590,-0.080,-0.270,-0.057,0.015,97.000
00:00:21.600,-0.090,-0.272,-0.056,0.017,97.000
00:00:21.610,-0.080,-0.269,-0.055,0.018,97.000
00:00:21.620,-0.095,-0.266,-0.054,0.020,97.000
00:00:21.630,-0.085,-0.263,-0.053,0.022,97.000
00:00:21.640,-0.060,-0.260,-0.053,0.023,97.000
00:00:21.650,-0.010,-0.257,-0.052,0.025,97.000
00:00:21.660,0.035,-0.253,-0.051,0.027,97.000
00:00:21.670,0.030,-0.248,-0.050,0.028,97.000
00:00:21.680,0.125,-0.244,-0.049,0.030,97.000
00:00:21.690,0.140,-0.239,-0.048,0.032,97.000
00:00:21.700,0.090,-0.235,-0.047,0.034,97.000
00:00:21.710,0.015,-0.235,-0.049,0.035,97.000
00:00:21.720,-0.030,-0.235,-0.051,0.037,97.000
00:00:21.730,-0.035,-0.235,-0.052,0.039,97.000
00:00:21.740,-0.160,-0.235,-0.054,0.041,97.000
00:00:21.750,-0.185,-0.235,-0.056,0.042,97.000
00:00:21.760,-0.185,-0.228,-0.060,0.044,97.000
00:00:21.770,-0.150,-0.221,-0.065,0.045,97.000
00:00:21.780,-0.185,-0.214,-0.070,0.047,97.000
00:00:21.790,-0.195,-0.208,-0.075,0.049,97.000
00:00:21.800,0.150,-0.201,-0.079,0.050,97.000
00:00:21.810,1.065,-0.198,-0.085,0.052,97.000
00:00:21.820,1.715,-0.195,-0.091,0.053,97.000
00:00:21.830,0.380,-0.191,-0.098,0.055,97.000
00:00:21.840,-0.620,-0.188,-0.104,0.056,97.000
00:00:21.850,-0.630,-0.185,-0.110,0.058,97.000
00:00:21.860,-0.390,-0.178,-0.109,0.059,97.000
00:00:21.870,-0.160,-0.171,-0.108,0.061,97.000
00:00:21.880,-0.165,-0.164,-0.107,0.063,97.000
00:00:21.890,-0.150,-0.157,-0.107,0.064,97.000
00:00:21.900,-0.160,-0.149,-0.106,0.066,97.000
00:00:21.910,-0.135,-0.143,-0.104,0.067,97.000
00:00:21.920,-0.135,-0.136,-0.102,0.069,97.000
00:00:21.930,-0.130,-0.130,-0.101,0.070,97.000
00:00:21.940,-0.110,-0.123,-0.099,0.072,97.000
00:00:21.950,-0.085,-0.117,-0.097,0.073,97.000
00:00:21.960,-0.070,-0.119,-0.101,0.075,96.000
00:00:21.970,-0.035,-0.121,-0.104,0.076,96.000
00:00:21.980,-0.025,-0.123,-0.107,0.078,96.000
00:00:21.990,0.000,-0.125,-0.110,0.079,96.000
00:00:22.000,0.030,-0.127,-0.114,0.081,96.000
00:00:22.010,0.085,-0.127,-0.115,0.082,96.000
00:00:22.020,0.095,-0.126,-0.116,0.083,96.000
00:00:22.030,0.150,-0.126,-0.117,0.084,96.000
00:00:22.040,0.175,-0.125,-0.118,0.085,96.000
00:00:22.050,0.225,-0.124,-0.119,0.086,96.000
00:00:22.060,0.240,-0.125,-0.119,0.086,96.000
00:00:22.070,0.255,-0.125,-0.119,0.086,96.000
00:00:22.080,0.275,-0.126,-0.119,0.086,96.000
00:00:22.090,0.275,-0.127,-0.119,0.086,96.000
00:00:22.100,0.265,-0.127,-0.119,0.086,96.000
00:00:22.110,0.260,-0.125,-0.118,0.085,96.000
00:00:22.120,0.210,-0.123,-0.117,0.084,96.000
00:00:22.130,0.175,-0.121,-0.117,0.083,96.000
00:00:22.140,0.110,-0.119,-0.116,0.082,96.000
00:00:22.150,0.070,-0.117,-0.115,0.081,96.000
00:00:22.160,0.040,-0.118,-0.115,0.080,96.000
00:00:22.170,0.025,-0.118,-0.115,0.078,96.000
00:00:22.180,0.000,-0.119,-0.115,0.077,96.000
00:00:22.190,-0.010,-0.120,-0.115,0.076,96.000
00:00:22.200,-0.005,-0.121,-0.114,0.074,96.000
00:00:22.210,-0.005,-0.114,-0.111,0.073,96.000
00:00:22.220,-0.020,-0.107,-0.107,0.071,96.000
00:00:22.230,-0.010,-0.100,-0.103,0.069,96.000
00:00:22.240,-0.020,-0.093,-0.100,0.068,96.000
00:00:22.250,-0.005,-0.086,-0.096,0.066,96.000
00:00:22.260,0.000,-0.078,-0.095,0.064,96.000
00:00:22.270,-0.030,-0.071,-0.094,0.063,96.000
00:00:22.280,-0.020,-0.063,-0.094,0.061,96.000
00:00:22.290,-0.025,-0.056,-0.093,0.059,96.000
00:00:22.300,-0.015,-0.048,-0.092,0.058,96.000
00:00:22.310,-0.040,-0.058,-0.095,0.056,96.000
00:00:22.320,-0.035,-0.067,-0.098,0.054,96.000
00:00:22.330,-0.045,-0.076,-0.102,0.052,96.000
00:00:22.340,-0.055,-0.085,-0.105,0.050,96.000
00:00:22.350,-0.045,-0.094,-0.108,0.049,96.000
00:00:22.360,-0.060,-0.096,-0.106,0.047,96.000
00:00:22.370,-0.060,-0.097,-0.105,0.045,96.000
00:00:22.380,-0.055,-0.099,-0.104,0.043,96.000
00:00:22.390,-0.070,-0.101,-0.102,0.042,96.000
00:00:22.400,-0.060,-0.102,-0.101,0.040,96.000
00:00:22.410,-0.070,-0.097,-0.099,0.038,96.000
00:00:22.420,-0.060,-0.092,-0.098,0.037,96.000
00:00:22.430,-0.085,-0.087,-0.096,0.036,96.000
00:00:22.440,-0.080,-0.082,-0.095,0.034,96.000
00:00:22.450,-0.070,-0.077,-0.093,0.033,96.000
00:00:22.460,-0.065,-0.071,-0.091,0.032,96.000
00:00:22.470,-0.080,-0.065,-0.088,0.030,96.000
00:00:22.480,-0.085,-0.059,-0.086,0.029,96.000
00:00:22.490,-0.080,-0.054,-0.083,0.028,96.000
00:00:22.500,-0.105,-0.048,-0.080,0.026,96.000
00:00:22.510,-0.090,-0.046,-0.078,0.025,96.000
00:00:22.520,-0.080,-0.045,-0.076,0.024,96.000
00:00:22.530,-0.085,-0.044,-0.073,0.022,96.000
00:00:22.540,-0.100,-0.042,-0.071,0.021,96.000
00:00:22.550,-0.090,-0.041,-0.068,0.020,96.000
00:00:22.560,-0.100,-0.040,-0.067,0.019,96.000
00:00:22.570,-0.080,-0.039,-0.065,0.018,96.000
00:00:22.580,-0.020,-0.038,-0.064,0.017,96.000
00:00:22.590,0.005,-0.037,-0.063,0.016,96.000
00:00:22.600,0.030,-0.036,-0.061,0.015,96.000
00:00:22.610,0.090,-0.035,-0.061,0.015,96.000
00:00:22.620,0.170,-0.034,-0.060,0.014,96.000
00:00:22.630,0.125,-0.033,-0.060,0.013,96.000
00:00:22.640,0.040,-0.031,-0.060,0.012,96.000
00:00:22.650,-0.035,-0.030,-0.059,0.011,96.000
00:00:22.660,-0.025,-0.033,-0.059,0.010,96.000
00:00:22.670,-0.155,-0.036,-0.058,0.010,96.000
00:00:22.680,-0.195,-0.040,-0.058,0.009,96.000
00:00:22.690,-0.200,-0.043,-0.057,0.008,96.000
00:00:22.700,-0.185,-0.046,-0.057,0.007,96.000
00:00:22.710,-0.195,-0.049,-0.058,0.006,96.000
00:00:22.720,-0.205,-0.052,-0.060,0.006,96.000
00:00:22.730,0.115,-0.054,-0.061,0.005,96.000
00:00:22.740,0.780,-0.057,-0.062,0.004,96.000
00:00:22.750,1.265,-0.060,-0.064,0.003,96.000
00:00:22.760,0.595,-0.061,-0.064,0.002,96.000
00:00:22.770,-0.285,-0.063,-0.064,0.001,96.000
00:00:22.780,-0.720,-0.064,-0.064,0.000,96.000
00:00:22.790,-0.615,-0.065,-0.064,-0.001,96.000
00:00:22.800,-0.330,-0.066,-0.064,-0.002,96.000
00:00:22.810,-0.180,-0.061,-0.060,-0.003,96.000
00:00:22.820,-0.165,-0.057,-0.056,-0.005,96.000
00:00:22.830,-0.150,-0.053,-0.052,-0.006,96.000
00:00:22.840,-0.140,-0.048,-0.048,-0.007,96.000
00:00:22.850,-0.140,-0.044,-0.044,-0.009,96.000
00:00:22.860,-0.125,-0.045,-0.045,-0.011,96.000
00:00:22.870,-0.115,-0.047,-0.046,-0.013,96.000
00:00:22.880,-0.085,-0.048,-0.047,-0.015,96.000
00:00:22.890,-0.055,-0.049,-0.048,-0.017,96.000
00:00:22.900,-0.035,-0.051,-0.049,-0.018,96.000
00:00:22.910,-0.025,-0.046,-0.046,-0.021,96.000
00:00:22.920,0.005,-0.042,-0.042,-0.023,96.000
00:00:22.930,0.010,-0.037,-0.039,-0.025,96.000
00:00:22.940,0.060,-0.033,-0.036,-0.027,96.000
00:00:22.950,0.080,-0.028,-0.033,-0.029,96.000
00:00:22.960,0.100,-0.027,-0.031,-0.032,95.000
00:00:22.970,0.145,-0.026,-0.030,-0.034,95.000
00:00:22.980,0.170,-0.024,-0.029,-0.037,95.000
00:00:22.990,0.210,-0.023,-0.027,-0.039,95.000
00:00:23.000,0.230,-0.022,-0.026,-0.041,95.000
00:00:23.010,0.230,-0.028,-0.029,-0.044,95.000
00:00:23.020,0.250,-0.034,-0.033,-0.046,95.000
00:00:23.030,0.235,-0.040,-0.036,-0.048,95.000
00:00:23.040,0.220,-0.046,-0.039,-0.051,95.000
00:00:23.050,0.195,-0.052,-0.042,-0.053,95.000
00:00:23.060,0.165,-0.047,-0.039,-0.055,95.000
00:00:23.070,0.125,-0.043,-0.036,-0.057,95.000
00:00:23.080,0.070,-0.039,-0.033,-0.059,95.000
00:00:23.090,0.040,-0.035,-0.029,-0.061,95.000
00:00:23.100,0.025,-0.030,-0.026,-0.063,95.000
00:00:23.110,0.005,-0.031,-0.026,-0.065,95.000
00:00:23.120,-0.005,-0.032,-0.026,-0.066,95.000
00:00:23.130,-0.010,-0.032,-0.025,-0.068,95.000
00:00:23.140,0.000,-0.033,-0.025,-0.070,95.000
00:00:23.150,0.005,-0.034,-0.025,-0.072,95.000
00:00:23.160,0.000,-0.031,-0.022,-0.074,95.000
00:00:23.170,0.000,-0.029,-0.020,-0.076,95.000
00:00:23.180,-0.005,-0.026,-0.018,-0.078,95.000
00:00:23.190,-0.010,-0.024,-0.015,-0.080,95.000
00:00:23.200,-0.010,-0.022,-0.013,-0.082,95.000
00:00:23.210,-0.030,-0.015,-0.009,-0.084,95.000
00:00:23.220,-0.030,-0.009,-0.004,-0.086,95.000
00:00:23.230,-0.020,-0.002,0.001,-0.088,95.000
00:00:23.240,-0.020,0.004,0.005,-0.090,95.000
00:00:23.250,-0.050,0.010,0.010,-0.092,95.000
00:00:23.260,-0.050,0.008,0.009,-0.093,95.000
00:00:23.270,-0.065,0.005,0.008,-0.095,95.000
00:00:23.280,-0.055,0.003,0.007,-0.097,95.000
00:00:23.290,-0.065,0.001,0.006,-0.098,95.000
00:00:23.300,-0.065,-0.002,0.005,-0.100,95.000
00:00:23.310,-0.070,0.002,0.009,-0.102,95.000
00:00:23.320,-0.070,0.006,0.013,-0.104,95.000
00:00:23.330,-0.080,0.010,0.017,-0.105,95.000
00:00:23.340,-0.085,0.014,0.021,-0.107,95.000
00:00:23.350,-0.085,0.018,0.025,-0.109,95.000
00:00:23.360,-0.080,0.022,0.029,-0.111,95.000
00:00:23.370,-0.075,0.027,0.033,-0.113,95.000
00:00:23.380,-0.065,0.031,0.037,-0.115,95.000
00:00:23.390,-0.090,0.036,0.042,-0.117,95.000
00:00:23.400,-0.105,0.040,0.046,-0.119,95.000
00:00:23.410,-0.070,0.037,0.045,-0.121,95.000
00:00:23.420,-0.105,0.034,0.044,-0.123,95.000
00:00:23.430,-0.075,0.031,0.044,-0.125,95.000
00:00:23.440,-0.095,0.028,0.043,-0.127,95.000
00:00:23.450,-0.070,0.025,0.043,-0.130,95.000
00:00:23.460,-0.095,0.027,0.045,-0.132,95.000
00:00:23.470,-0.085,0.029,0.048,-0.135,95.000
00:00:23.480,-0.090,0.030,0.050,-0.137,95.000
00:00:23.490,-0.070,0.032,0.052,-0.140,95.000
00:00:23.500,-0.070,0.034,0.055,-0.142,95.000
00:00:23.510,-0.005,0.028,0.053,-0.145,95.000
00:00:23.520,0.020,0.023,0.052,-0.147,95.000
00:00:23.530,0.045,0.017,0.050,-0.150,95.000
00:00:23.540,0.135,0.012,0.049,-0.153,95.000
00:00:23.550,0.200,0.006,0.047,-0.155,95.000
00:00:23.560,0.115,0.004,0.048,-0.158,95.000
00:00:23.570,0.030,0.001,0.049,-0.161,95.000
00:00:23.580,-0.030,-0.002,0.051,-0.164,95.000
00:00:23.590,-0.035,-0.005,0.052,-0.167,95.000
00:00:23.600,-0.170,-0.007,0.053,-0.170,95.000
00:00:23.610,-0.175,-0.001,0.059,-0.173,95.000
00:00:23.620,-0.175,0.006,0.064,-0.176,95.000
00:00:23.630,-0.170,0.012,0.070,-0.179,95.000
00:00:23.640,-0.205,0.019,0.076,-0.183,95.000
00:00:23.650,-0.165,0.026,0.081,-0.186,95.000
00:00:23.660,0.265,0.021,0.084,-0.189,95.000
00:00:23.670,1.075,0.016,0.087,-0.193,95.000
00:00:23.680,1.570,0.012,0.090,-0.196,95.000
00:00:23.690,0.210,0.007,0.093,-0.200,95.000
00:00:23.700,-0.570,0.002,0.096,-0.203,95.000
00:00:23.710,-0.710,0.005,0.101,-0.207,95.000
00:00:23.720,-0.510,0.008,0.105,-0.210,95.000
00:00:23.730,-0.240,0.010,0.109,-0.214,95.000
00:00:23.740,-0.170,0.013,0.114,-0.217,95.000
00:00:23.750,-0.155,0.015,0.118,-0.221,95.000
00:00:23.760,-0.145,0.019,0.123,-0.224,95.000
00:00:23.770,-0.135,0.023,0.129,-0.228,95.000
00:00:23.780,-0.125,0.027,0.134,-0.232,95.000
00:00:23.790,-0.105,0.031,0.139,-0.235,95.000
00:00:23.800,-0.110,0.035,0.144,-0.239,95.000
00:00:23.810,-0.055,0.023,0.149,-0.242,95.000
00:00:23.820,-0.075,0.011,0.153,-0.245,95.000
00:00:23.830,-0.015,-0.002,0.158,-0.249,95.000
00:00:23.840,-0.030,-0.014,0.163,-0.252,95.000
00:00:23.850,0.025,-0.027,0.167,-0.256,95.000
00:00:23.860,0.030,-0.022,0.171,-0.259,95.000
00:00:23.870,0.060,-0.017,0.175,-0.262,95.000
00:00:23.880,0.100,-0.012,0.178,-0.265,95.000
00:00:23.890,0.155,-0.007,0.182,-0.269,95.000
00:00:23.900,0.170,-0.002,0.186,-0.272,95.000
00:00:23.910,0.225,0.006,0.191,-0.275,95.000
00:00:23.920,0.240,0.013,0.197,-0.279,95.000
00:00:23.930,0.275,0.021,0.202,-0.282,95.000
00:00:23.940,0.255,0.029,0.207,-0.285,95.000
00:00:23.950,0.250,0.037,0.213,-0.289,95.000
00:00:23.960,0.250,0.031,0.219,-0.292,95.000
00:00:23.970,0.220,0.025,0.224,-0.295,95.000
00:00:23.980,0.185,0.019,0.230,-0.298,95.000
00:00:23.990,0.140,0.013,0.236,-0.301,95.000
00:00:24.000,0.080,0.006,0.242,-0.304,95.000
00:00:24.010,0.060,0.010,0.246,-0.307,95.000
00:00:24.020,0.010,0.014,0.251,-0.310,95.000
00:00:24.030,0.000,0.018,0.255,-0.313,95.000
00:00:24.040,-0.010,0.022,0.260,-0.316,95.000
00:00:24.050,-0.035,0.026,0.264,-0.319,95.000
00:00:24.060,-0.015,0.028,0.270,-0.322,95.000
00:00:24.070,-0.020,0.029,0.276,-0.325,95.000
00:00:24.080,-0.020,0.031,0.281,-0.328,95.000
00:00:24.090,-0.015,0.032,0.287,-0.331,95.000
00:00:24.100,-0.005,0.034,0.293,-0.334,95.000
00:00:24.110,0.000,0.037,0.299,-0.336,95.000
00:00:24.120,-0.030,0.040,0.305,-0.339,95.000
00:00:24.130,-0.015,0.043,0.310,-0.342,95.000
00:00:24.140,-0.030,0.047,0.316,-0.345,95.000
00:00:24.150,-0.040,0.050,0.322,-0.348,95.000
00:00:24.160,-0.035,0.058,0.326,-0.351,95.000
00:00:24.170,-0.050,0.065,0.331,-0.354,95.000
00:00:24.180,-0.055,0.073,0.335,-0.357,95.000
00:00:24.190,-0.060,0.081,0.339,-0.360,95.000
00:00:24.200,-0.075,0.088,0.344,-0.363,95.000
00:00:24.210,-0.080,0.091,0.349,-0.365,95.000
00:00:24.220,-0.090,0.094,0.353,-0.368,95.000
00:00:24.230,-0.070,0.096,0.358,-0.371,95.000
00:00:24.240,-0.075,0.099,0.363,-0.373,95.000
00:00:24.250,-0.080,0.102,0.367,-0.376,95.000
00:00:24.260,-0.095,0.106,0.373,-0.378,95.000
00:00:24.270,-0.085,0.110,0.378,-0.381,95.000
00:00:24.280,-0.100,0.114,0.383,-0.383,95.000
00:00:24.290,-0.090,0.119,0.388,-0.386,95.000
00:00:24.300,-0.100,0.123,0.393,-0.388,95.000
00:00:24.310,-0.100,0.127,0.399,-0.391,95.000
00:00:24.320,-0.120,0.132,0.404,-0.393,95.000
00:00:24.330,-0.135,0.136,0.410,-0.396,95.000
00:00:24.340,-0.100,0.140,0.415,-0.399,95.000
00:00:24.350,-0.015,0.145,0.420,-0.401,95.000
00:00:24.360,0.010,0.149,0.425,-0.403,95.000
00:00:24.370,0.035,0.154,0.430,-0.405,95.000
00:00:24.380,0.120,0.159,0.435,-0.408,95.000
00:00:24.390,0.170,0.163,0.440,-0.410,95.000
00:00:24.400,0.085,0.168,0.445,-0.412,95.000
00:00:24.410,-0.005,0.167,0.450,-0.414,95.000
00:00:24.420,-0.060,0.167,0.455,-0.416,95.000
00:00:24.430,-0.055,0.166,0.461,-0.419,95.000
00:00:24.440,-0.195,0.165,0.466,-0.421,95.000
00:00:24.450,-0.215,0.165,0.471,-0.423,95.000
00:00:24.460,-0.220,0.161,0.476,-0.425,95.000
00:00:24.470,-0.200,0.157,0.481,-0.427,95.000
00:00:24.480,-0.250,0.153,0.486,-0.430,95.000
00:00:24.490,-0.145,0.150,0.491,-0.432,95.000
00:00:24.500,0.310,0.146,0.496,-0.434,95.000
00:00:24.510,1.200,0.143,0.501,-0.436,95.000
00:00:24.520,1.645,0.141,0.507,-0.439,95.000
00:00:24.530,0.055,0.139,0.512,-0.441,95.000
00:00:24.540,-0.750,0.136,0.518,-0.444,95.000
00:00:24.550,-0.795,0.134,0.523,-0.446,95.000
00:00:24.560,-0.505,0.139,0.528,-0.449,95.000
00:00:24.570,-0.240,0.143,0.533,-0.452,95.000
00:00:24.580,-0.210,0.148,0.538,-0.454,95.000
00:00:24.590,-0.140,0.153,0.543,-0.457,95.000
00:00:24.600,-0.170,0.158,0.548,-0.460,95.000
00:00:24.610,-0.140,0.155,0.553,-0.462,95.000
00:00:24.620,-0.165,0.152,0.557,-0.464,95.000
00:00:24.630,-0.120,0.149,0.561,-0.466,95.000
00:00:24.640,-0.115,0.147,0.565,-0.469,95.000
00:00:24.650,-0.075,0.144,0.570,-0.471,95.000
00:00:24.660,-0.075,0.138,0.574,-0.473,95.000
00:00:24.670,-0.050,0.133,0.578,-0.475,95.000
00:00:24.680,0.000,0.127,0.583,-0.477,95.000
00:00:24.690,-0.020,0.121,0.587,-0.478,95.000
00:00:24.700,0.045,0.115,0.591,-0.480,95.000
00:00:24.710,0.065,0.125,0.596,-0.482,95.000
00:00:24.720,0.115,0.136,0.602,-0.484,95.000
00:00:24.730,0.165,0.146,0.607,-0.486,95.000
00:00:24.740,0.190,0.156,0.612,-0.488,95.000
00:00:24.750,0.245,0.166,0.617,-0.490,95.000
00:00:24.760,0.255,0.162,0.623,-0.492,95.000
00:00:24.770,0.250,0.157,0.629,-0.494,95.000
00:00:24.780,0.260,0.152,0.635,-0.495,95.000
00:00:24.790,0.285,0.148,0.642,-0.497,95.000
00:00:24.800,0.265,0.143,0.648,-0.499,95.000
00:00:24.810,0.185,0.139,0.653,-0.501,95.000
00:00:24.820,0.170,0.135,0.657,-0.503,95.000
00:00:24.830,0.095,0.131,0.662,-0.504,95.000
00:00:24.840,0.055,0.127,0.667,-0.506,95.000
00:00:24.850,0.030,0.122,0.672,-0.508,95.000
00:00:24.860,-0.050,0.127,0.677,-0.509,95.000
00:00:24.870,-0.025,0.132,0.682,-0.511,95.000
00:00:24.880,-0.060,0.137,0.686,-0.513,95.000
00:00:24.890,-0.045,0.141,0.691,-0.514,95.000
00:00:24.900,-0.060,0.146,0.696,-0.516,95.000
00:00:24.910,-0.070,0.144,0.702,-0.518,95.000
00:00:24.920,-0.065,0.142,0.708,-0.519,95.000
00:00:24.930,-0.050,0.140,0.714,-0.521,95.000
00:00:24.940,-0.050,0.139,0.720,-0.522,95.000
00:00:24.950,-0.055,0.137,0.726,-0.524,95.000
00:00:24.960,-0.040,0.143,0.729,-0.525,94.000
00:00:24.970,-0.045,0.150,0.733,-0.527,94.000
00:00:24.980,-0.050,0.156,0.736,-0.528,94.000
00:00:24.990,-0.050,0.163,0.740,-0.529,94.000
00:00:25.000,-0.070,0.169,0.743,-0.531,94.000
00:00:25.010,-0.095,0.169,0.746,-0.532,94.000
00:00:25.020,-0.075,0.169,0.749,-0.533,94.000
00:00:25.030,-0.080,0.168,0.752,-0.534,94.000
00:00:25.040,-0.095,0.168,0.755,-0.536,94.000
00:00:25.050,-0.085,0.167,0.758,-0.537,94.000
00:00:25.060,-0.100,0.163,0.760,-0.538,94.000
00:00:25.070,-0.095,0.159,0.762,-0.539,94.000
00:00:25.080,-0.125,0.155,0.764,-0.540,94.000
00:00:25.090,-0.100,0.151,0.766,-0.540,94.000
00:00:25.100,-0.100,0.148,0.768,-0.541,94.000
00:00:25.110,-0.090,0.150,0.765,-0.542,94.000
00:00:25.120,-0.055,0.153,0.763,-0.542,94.000
00:00:25.130,0.015,0.156,0.761,-0.543,94.000
00:00:25.140,0.020,0.159,0.759,-0.543,94.000
00:00:25.150,0.060,0.162,0.756,-0.544,94.000
00:00:25.160,0.160,0.161,0.753,-0.543,94.000
00:00:25.170,0.140,0.160,0.750,-0.543,94.000
00:00:25.180,0.035,0.160,0.746,-0.543,94.000
00:00:25.190,-0.025,0.159,0.743,-0.542,94.000
00:00:25.200,-0.035,0.158,0.739,-0.542,94.000
00:00:25.210,-0.125,0.161,0.733,-0.540,94.000
00:00:25.220,-0.215,0.165,0.727,-0.538,94.000
00:00:25.230,-0.210,0.168,0.720,-0.536,94.000
00:00:25.240,-0.190,0.171,0.714,-0.534,94.000
00:00:25.250,-0.205,0.175,0.707,-0.532,94.000
00:00:25.260,-0.265,0.173,0.700,-0.529,94.000
00:00:25.270,-0.005,0.171,0.693,-0.526,94.000
00:00:25.280,0.745,0.169,0.686,-0.522,94.000
00:00:25.290,1.480,0.167,0.679,-0.519,94.000
00:00:25.300,1.130,0.165,0.672,-0.516,94.000
00:00:25.310,-0.275,0.159,0.667,-0.512,94.000
00:00:25.320,-0.855,0.152,0.662,-0.507,94.000
00:00:25.330,-0.650,0.145,0.657,-0.503,94.000
00:00:25.340,-0.355,0.138,0.652,-0.499,94.000
00:00:25.350,-0.175,0.132,0.647,-0.495,94.000
00:00:25.360,-0.175,0.131,0.640,-0.490,94.000
00:00:25.370,-0.155,0.130,0.633,-0.485,94.000
00:00:25.380,-0.150,0.129,0.627,-0.481,94.000
00:00:25.390,-0.150,0.128,0.620,-0.476,94.000
00:00:25.400,-0.135,0.128,0.614,-0.471,94.000
00:00:25.410,-0.120,0.127,0.605,-0.466,94.000
00:00:25.420,-0.075,0.127,0.596,-0.461,94.000
00:00:25.430,-0.085,0.126,0.587,-0.456,94.000
00:00:25.440,-0.055,0.126,0.578,-0.451,94.000
00:00:25.450,-0.020,0.125,0.570,-0.447,94.000
00:00:25.460,0.000,0.132,0.561,-0.441,94.000
00:00:25.470,0.010,0.138,0.553,-0.436,94.000
00:00:25.480,0.065,0.144,0.544,-0.431,94.000
00:00:25.490,0.095,0.151,0.536,-0.426,94.000
00:00:25.500,0.120,0.157,0.528,-0.421,94.000
00:00:25.510,0.210,0.160,0.523,-0.416,94.000
00:00:25.520,0.230,0.163,0.518,-0.411,94.000
00:00:25.530,0.265,0.165,0.514,-0.406,94.000
00:00:25.540,0.285,0.168,0.509,-0.401,94.000
00:00:25.550,0.290,0.171,0.505,-0.396,94.000
00:00:25.560,0.300,0.174,0.499,-0.391,94.000
00:00:25.570,0.275,0.176,0.494,-0.386,94.000
00:00:25.580,0.240,0.179,0.488,-0.381,94.000
00:00:25.590,0.180,0.182,0.483,-0.377,94.000
00:00:25.600,0.140,0.184,0.478,-0.372,94.000
00:00:25.610,0.070,0.190,0.471,-0.367,94.000
00:00:25.620,0.005,0.195,0.464,-0.362,94.000
00:00:25.630,-0.010,0.200,0.458,-0.357,94.000
00:00:25.640,-0.030,0.205,0.451,-0.352,94.000
00:00:25.650,-0.065,0.210,0.445,-0.348,94.000
00:00:25.660,-0.070,0.206,0.440,-0.343,94.000
00:00:25.670,-0.070,0.202,0.436,-0.338,94.000
00:00:25.680,-0.075,0.197,0.432,-0.333,94.000
